# EFFECTIVE
# Energy (Joules) | Cross Section (m2)
#-------------------------------------
1.6394961084606993e-19	1.4410068328894524e-19
1.6776848786594008e-19	1.3935203187697893e-19
1.716763179587552e-19	1.3475986612294078e-19
1.756751731077568e-19	1.3031902924461884e-19
1.797671735588759e-19	1.2622494560612267e-19
1.839544889449158e-19	1.2232633642351172e-19
1.8823933943591978e-19	1.185481404721028e-19
1.9262399691633494e-19	1.1488663864449913e-19
1.9711078618959513e-19	1.1133822670240564e-19
2.0170208621076274e-19	1.0789941172876254e-19
2.0640033134788206e-19	1.0463738231936852e-19
2.1120801267271333e-19	1.0213750972113475e-19
2.1612767928153227e-19	9.969736112276407e-20
2.211619396466943e-19	9.731550966908067e-20
2.263134629996814e-19	9.499056259364203e-20
2.315849807463637e-19	9.272116040433765e-20
2.3697928791522737e-19	9.04716227983698e-20
2.4249924463933534e-19	8.82715918540543e-20
2.481477776728081e-19	8.612505985234905e-20
2.539278819426271e-19	8.403072584025254e-20
2.5984262213658494e-19	8.207535784672662e-20
2.6589513432822333e-19	8.048321941536476e-20
2.7208862763962074e-19	7.892196607364577e-20
2.7842638594291143e-19	7.739099869730921e-20
2.849117696014379e-19	7.588972978420175e-20
2.915482172514602e-19	7.44175832288284e-20
2.983392476253661e-19	7.308993387048117e-20
3.0528846141734974e-19	7.189412466870064e-20
3.1239954319254744e-19	7.071787985248375e-20
3.196762633406425e-19	6.956087933298863e-20
3.2712248007497636e-19	6.842280825827982e-20
3.34742141478224e-19	6.730335692765054e-20
3.4253928759571936e-19	6.637318410052812e-20
3.5051805257754145e-19	6.549469964290671e-20
3.5868266687049514e-19	6.462784239517045e-20
3.670374594611499e-19	6.377245846500111e-20
3.7558686017112603e-19	6.292839599692729e-20
3.8433540200584474e-19	6.209550514536565e-20
3.9328772355798746e-19	6.160932540255826e-20
4.02448571466939e-19	6.131686397449374e-20
4.1182280293551896e-19	6.102579087013423e-20
4.2141538830533453e-19	6.073609949906291e-20
4.312314136921216e-19	6.04477833021479e-20
4.412760836824709e-19	6.016083575139374e-20
4.515547240933681e-19	6.006769501500604e-20
4.62072784796013e-19	6.019866856744219e-20
4.728358426054132e-19	6.03299276988639e-20
4.83849604237285e-19	6.046147303195787e-20
4.9511990933383e-19	6.059330519076652e-20
5.066527335599906e-19	6.072542480069494e-20
5.184541917718263e-19	6.08578324885099e-20
5.3053054125869215e-19	6.11804476663558e-20
5.428881850609352e-19	6.158013710370655e-20
5.555336753648722e-19	6.198243769629488e-20
5.684737169768451e-19	6.238736650269333e-20
5.817151708781984e-19	6.279494069291897e-20
5.952650578630619e-19	6.320517754915991e-20
6.091305622608688e-19	6.361809446650653e-20
6.233190357455825e-19	6.41054550058933e-20
6.378380012336515e-19	6.466972227662768e-20
6.526951568727586e-19	6.523895632519388e-20
6.678983801234814e-19	6.581320087002643e-20
6.834557319360259e-19	6.639250001437865e-20
6.993754610242489e-19	6.697689824970671e-20
7.156660082392357e-19	6.780880830747399e-20
7.323360110447502e-19	6.871365299882917e-20
7.493943080969339e-19	6.963057199049942e-20
7.668499439306768e-19	7.055972640265097e-20
7.847121737551508e-19	7.147566373612992e-20
8.029904683610434e-19	7.224679029071231e-20
8.216945191420963e-19	7.302623626664817e-20
8.408342432336109e-19	7.381409141933778e-20
8.604197887706452e-19	7.461044647251943e-20
8.804615402686881e-19	7.548408649869281e-20
9.009701241296674e-19	7.64413039127409e-20
9.2195641427621e-19	7.741065984790329e-20
9.434315379171375e-19	7.83923082333633e-20
9.654068814472614e-19	7.938640495028853e-20
9.878940964845993e-19	8.03422083749016e-20
1.0109051060482178e-18	8.121668497602568e-20
1.034452110879974e-18	8.21006797288341e-20
1.058547595913511e-18	8.299429623268011e-20
1.0832043368939352e-18	8.389763921453629e-20
1.1084354071516849e-18	8.481081454126257e-20
1.1342541845341836e-18	8.582101087757289e-20
1.1606743584989515e-18	8.68893866999555e-20
1.1877099373719365e-18	8.797106260918373e-20
1.2153752557749162e-18	8.906620417649797e-20
1.2436849822259009e-18	9.017497903431579e-20
1.2726541269165788e-18	9.091559645533658e-20
1.3022980496709166e-18	9.115695270735253e-20
1.3326324680891424e-18	9.139894969476181e-20
1.3636734658814251e-18	9.164158911854163e-20
1.3954375013956703e-18	9.188487268418707e-20
1.4279414163439544e-18	9.212880210172085e-20
1.4612024447322233e-18	9.237337908570306e-20
1.4952382219979899e-18	9.265514418192924e-20
1.5300667943608774e-18	9.294804155287056e-20
1.5657066283909638e-18	9.324186481811234e-20
1.6021766208e-18	9.353661690455093e-20
1.6394961084606991e-18	9.376731656128662e-20
1.677684878659401e-18	9.354785619648035e-20
1.7167631795875523e-18	9.332890947388425e-20
1.7567517310775683e-18	9.311047519133066e-20
1.7976717355887593e-18	9.28925521494633e-20
1.839544889449158e-18	9.267513915173597e-20
1.8823933943591983e-18	9.245823500439995e-20
1.9262399691633497e-18	9.207356526611425e-20
1.9711078618959515e-18	9.166229112011555e-20
2.017020862107628e-18	9.125285405322504e-20
2.0640033134788207e-18	9.084524585957813e-20
2.112080126727134e-18	9.043945836996638e-20
2.1612767928153236e-18	9.003548345166937e-20
2.211619396466944e-18	8.963331300829463e-20
2.2631346299968146e-18	8.894375362642314e-20
2.315849807463638e-18	8.809538337265543e-20
2.369792879152273e-18	8.725510511026578e-20
2.424992446393353e-18	8.642284165558968e-20
2.4814777767280807e-18	8.559851656116395e-20
2.539278819426271e-18	8.47820541087005e-20
2.5984262213658493e-18	8.3973379302134e-20
2.6589513432822333e-18	8.346275033175347e-20
2.7208862763962073e-18	8.299082447327865e-20
2.7842638594291137e-18	8.252156703892064e-20
2.849117696014379e-18	8.205496294053196e-20
2.915482172514602e-18	8.159099717527783e-20
2.9833924762536613e-18	8.10189738801493e-20
3.052884614173498e-18	7.998469742067815e-20
3.123995431925474e-18	7.896362438434769e-20
3.196762633406425e-18	7.795558621817607e-20
3.2712248007497646e-18	7.696041652090239e-20
3.3474214147822402e-18	7.59779510155201e-20
3.4253928759571942e-18	7.499728782403022e-20
3.505180525775415e-18	7.3337206414628e-20
3.586826668704952e-18	7.171387127120215e-20
3.670374594611499e-18	7.012646900709733e-20
3.755868601711261e-18	6.857420424015196e-20
3.843354020058449e-18	6.705629919416241e-20
3.932877235579875e-18	6.557199330917235e-20
4.0244857146693915e-18	6.412054286038527e-20
4.118228029355191e-18	6.287047314273567e-20
4.214153883053344e-18	6.168769270523394e-20
4.312314136921216e-18	6.052716388273375e-20
4.412760836824709e-18	5.938846805622986e-20
4.515547240933681e-18	5.827119448218452e-20
4.6207278479601305e-18	5.717494014436665e-20
4.728358426054131e-18	5.609930960847807e-20
4.838496042372849e-18	5.504391487951495e-20
4.951199093338299e-18	5.4008375261812497e-20
5.066527335599905e-18	5.2992317221722735e-20
5.184541917718263e-18	5.199537425287565e-20
5.305305412586922e-18	5.079760489563496e-20
5.428881850609351e-18	4.9619542292242927e-20
5.5553367536487214e-18	4.846880049463223e-20
5.684737169768451e-18	4.734474589774114e-20
5.817151708781985e-18	4.624675959063399e-20
5.9526505786306184e-18	4.5174237015726736e-20
6.091305622608688e-18	4.4126587635911804e-20
6.233190357455827e-18	4.3103234609406495e-20
6.378380012336517e-18	4.188439049000886e-20
6.526951568727587e-18	4.0608718293706214e-20
6.678983801234816e-18	3.937189922462785e-20
6.8345573193602595e-18	3.8172749933713175e-20
6.99375461024249e-18	3.701012311314491e-20
7.156660082392358e-18	3.588290639864028e-20
7.323360110447503e-18	3.47900213051782e-20
7.493943080969342e-18	3.3730422195137935e-20
7.668499439306766e-18	3.2703095277866926e-20
7.847121737551505e-18	3.173167677493381e-20
8.029904683610432e-18	3.082668086069975e-20
8.216945191420962e-18	2.994749567215124e-20
8.40834243233611e-18	2.909338508048379e-20
8.604197887706453e-18	2.826363395148342e-20
8.804615402686881e-18	2.745754754675535e-20
9.009701241296675e-18	2.6674450942029526e-20
9.2195641427621e-18	2.591368846205737e-20
9.434315379171374e-18	2.5174623131623215e-20
9.654068814472614e-18	2.4402123146460314e-20
9.878940964845994e-18	2.361081850481354e-20
1.0109051060482177e-17	2.2845174049869923e-20
1.0344521108799739e-17	2.2104357680884898e-20
1.0585475959135109e-17	2.1387564280223693e-20
1.0832043368939352e-17	2.0694014838362332e-20
1.108435407151685e-17	2.0022955607261173e-20
1.1342541845341839e-17	1.9300863159036083e-20
1.1606743584989516e-17	1.846534494138114e-20
1.187709937371937e-17	1.7665995608313585e-20
1.2153752557749167e-17	1.6901249439080844e-20
1.2436849822259013e-17	1.61696084916723e-20
1.272654126916579e-17	1.5469639668733142e-20
1.3022980496709168e-17	1.4817910474869178e-20
1.3326324680891426e-17	1.428536856846463e-20
1.3636734658814248e-17	1.377196572235874e-20
1.39543750139567e-17	1.3277014096543482e-20
1.4279414163439543e-17	1.2799850571340325e-20
1.4612024447322232e-17	1.2339835858974907e-20
1.49523822199799e-17	1.1942669376739653e-20
1.5300667943608775e-17	1.1611535817628628e-20
1.565706628390964e-17	1.1289583575567467e-20
1.6021766208e-17	1.0976558080819936e-20
1.6394961084606982e-17	1.0672211822087362e-20
1.6776848786594008e-17	1.0376304150799194e-20
1.7167631795875515e-17	1.0088601090831317e-20
1.756751731077568e-17	9.804935257582459e-21
1.7976717355887584e-17	9.50630563217499e-21
1.8395448894491563e-17	9.216771390962134e-21
1.8823933943591973e-17	8.93605551516675e-21
1.9262399691633474e-17	8.663889423192721e-21
1.9711078618959505e-17	8.42208187431859e-21
2.0170208621076258e-17	8.209614331133238e-21
2.06400331347882e-17	8.002506799591256e-21
2.112080126727132e-17	7.800624060334366e-21
2.161276792815322e-17	7.603834305242444e-21
2.2116193964669415e-17	7.41200905137621e-21
2.2631346299968134e-17	7.225023057091939e-21
2.3158498074636352e-17	7.042754240271389e-21
2.369792879152273e-17	6.865083598615546e-21
2.4249924463933517e-17	6.662189396014202e-21
2.4814777767280807e-17	6.455581275627368e-21
2.5392788194262695e-17	6.255380495661586e-21
2.5984262213658494e-17	6.061388351384464e-21
2.658951343282232e-17	5.873412300303805e-21
2.7208862763962073e-17	5.7132431831538304e-21
2.784263859429113e-17	5.570735686082712e-21
2.849117696014379e-17	5.43178280520251e-21
2.915482172514601e-17	5.296295876432213e-21
2.983392476253661e-17	5.1641884472711474e-21
3.052884614173496e-17	5.03537622163472e-21
3.123995431925474e-17	4.914994829279005e-21
3.1967626334064236e-17	4.797951725999873e-21
3.271224800749765e-17	4.683695825658087e-21
3.3474214147822386e-17	4.572160755268039e-21
3.4253928759571906e-17	4.4632817224153975e-21
3.505180525775414e-17	4.35699547761844e-21
3.5868266687049485e-17	4.2532402775853515e-21
3.670374594611498e-17	4.1460819484679485e-21
3.755868601711257e-17	4.0378413073879814e-21
3.8433540200584464e-17	3.932426475476082e-21
3.932877235579871e-17	3.8297636800958504e-21
4.024485714669389e-17	3.729781074573178e-21
4.118228029355186e-17	3.63240868791575e-21
4.214153883053345e-17	3.537578375844951e-21
4.3123141369212136e-17	3.4443582110871044e-21
4.4127608368247085e-17	3.352229991653325e-21
4.515547240933679e-17	3.2625659784071093e-21
4.6207278479601297e-17	3.1753002598159505e-21
4.728358426054129e-17	3.0903686873207023e-21
4.838496042372849e-17	3.007708828180528e-21
4.951199093338296e-17	2.9272599195787256e-21
5.066527335599906e-17	2.8489628239565082e-21
5.184541917718261e-17	2.7655003677239204e-21
5.305305412586921e-17	2.6812709527896475e-21
5.4288818506093483e-17	2.599606930513778e-21
5.555336753648722e-17	2.520430166203141e-21
5.684737169768449e-17	2.443664904929048e-21
5.817151708781985e-17	2.369237699046233e-21
5.952650578630616e-17	2.2970773379195666e-21
6.091305622608682e-17	2.2342019225381383e-21
6.233190357455823e-17	2.1734781674710346e-21
6.37838001233651e-17	2.114404833698556e-21
6.526951568727585e-17	2.056937064138878e-21
6.678983801234809e-17	2.0010312208884525e-21
6.834557319360256e-17	1.9419457129543295e-21
6.993754610242484e-17	1.8828002012746773e-21
7.156660082392353e-17	1.825456074426992e-21
7.323360110447496e-17	1.7698584679385702e-21
7.493943080969337e-17	1.715954188334601e-21
7.668499439306762e-17	1.6609108077197509e-21
7.847121737551506e-17	1.6057339920583409e-21
8.029904683610427e-17	1.5523901953479683e-21
8.216945191420962e-17	1.5008185231996535e-21
8.408342432336104e-17	1.4509601041858678e-21
8.604197887706452e-17	1.4027580226360127e-21
8.804615402686874e-17	1.3538806550906598e-21
9.009701241296673e-17	1.3035611616595454e-21
9.219564142762094e-17	1.255111885820823e-21
9.434315379171375e-17	1.2084633174581568e-21
9.65406881447261e-17	1.1635485299280057e-21
9.878940964845992e-17	1.1182489685866759e-21
1.0109051060482172e-16	1.0740754441908919e-21
1.0344521108799738e-16	1.0316468802756009e-21
1.0585475959135103e-16	9.992876606301545e-22
1.083204336893934e-16	9.729484558714241e-22
1.1084354071516844e-16	9.473034993603753e-22
1.1342541845341826e-16	9.223344921151663e-22
1.1606743584989512e-16	8.915419555297245e-22
1.1877099373719358e-16	8.53882705213595e-22
1.215375255774916e-16	8.178142035162722e-22
1.2436849822259e-16	7.832692562916562e-22
1.2726541269165783e-16	7.525097331409154e-22
1.3022980496709154e-16	7.270309218402839e-22
1.332632468089142e-16	7.024147835347027e-22
1.363673465881424e-16	6.786321094558503e-22
1.39543750139567e-16	6.559757865163291e-22
1.4279414163439535e-16	6.355392790491803e-22
1.461202444732223e-16	6.157394579446071e-22
1.495238221997989e-16	5.965564876448491e-22
1.5300667943608776e-16	5.780574269147058e-22
1.565706628390963e-16	5.609773680191641e-22
1.6021766208000002e-16	5.444019794181158e-22
1.6394961084606984e-16	5.283163494471633e-22
1.677684878659401e-16	5.127060070419154e-22
1.7167631795875514e-16	4.975569087194298e-22
1.7567517310775682e-16	4.828554259443188e-22
1.7976717355887584e-16	4.685883328681533e-22
1.839544889449158e-16	4.547427944311345e-22
1.882393394359197e-16	4.413063548153296e-22
1.9262399691633496e-16	4.28266926239084e-22
1.9711078618959504e-16	4.156127780825281e-22
2.0170208621076257e-16	4.033325263343973e-22
2.0640033134788196e-16	3.914151233506667e-22
2.112080126727132e-16	3.7984984791580654e-22
2.161276792815322e-16	3.686262955976701e-22
2.2116193964669417e-16	3.5773436938740003e-22
2.2631346299968135e-16	3.47164270615885e-22
2.3158498074636354e-16	3.3690649013861416e-22
2.3697928791522733e-16	3.2695179978099536e-22
2.424992446393352e-16	3.172912440364417e-22
2.48147777672808e-16	3.079161320097576e-22
2.5392788194262693e-16	2.9881802959857616e-22
2.598426221365849e-16	2.8998875190581416e-22
2.658951343282232e-16	2.814203558763194e-22
2.720886276396207e-16	2.7310513315108247e-22
2.784263859429112e-16	2.650356031325995e-22
2.849117696014379e-16	2.57204506255112e-22
2.9154821725146005e-16	2.4960479745371597e-22
2.983392476253661e-16	2.422296398264301e-22
3.052884614173496e-16	2.350723984835354e-22
3.123995431925474e-16	2.2812663457865013e-22
3.1967626334064236e-16	2.2138609951617097e-22
3.271224800749764e-16	2.148447293298687e-22
3.3474214147822387e-16	2.0849663922758147e-22
3.4253928759571947e-16	2.0233611829709776e-22
3.5051805257754136e-16	1.963576243684666e-22
3.586826668704948e-16	1.9055577902811269e-22
3.670374594611498e-16	1.849253627802697e-22
3.755868601711257e-16	1.7946131035138798e-22
3.8433540200584465e-16	1.741587061332692e-22
3.932877235579871e-16	1.6901277976085968e-22
4.0244857146693894e-16	1.640189018207002e-22
4.118228029355186e-16	1.5917257968618157e-22
4.214153883053344e-16	1.5446945347585708e-22
4.3123141369212137e-16	1.4990529213117624e-22
4.412760836824709e-16	1.4547598961011086e-22
4.515547240933678e-16	1.4117756119324954e-22
4.62072784796013e-16	1.37006139899036e-22
4.728358426054129e-16	1.3295797300493429e-22
4.838496042372849e-16	1.2902941867136665e-22
4.951199093338296e-16	1.252169426654323e-22
5.066527335599905e-16	1.2151711518140482e-22
5.184541917718261e-16	1.17926607755192e-22
5.305305412586921e-16	1.1444219026995949e-22
5.428881850609349e-16	1.1106072805023073e-22
5.555336753648722e-16	1.0777917904184893e-22
5.684737169768448e-16	1.045945910752635e-22
5.817151708781984e-16	1.0150409920967901e-22
5.952650578630615e-16	9.850492315567766e-23
6.091305622608688e-16	9.559436477399625e-23
6.233190357455823e-16	9.276980564820699e-23
6.378380012336509e-16	9.002870472912355e-23
6.526951568727585e-16	8.736859604879677e-23
6.67898380123481e-16	8.478708650207412e-23
6.834557319360256e-16	8.228185369369002e-23
6.993754610242484e-16	7.985064384898036e-23
7.156660082392354e-16	7.74912697863256e-23
7.323360110447496e-16	7.52016089495035e-23
7.493943080969337e-16	7.297960149818061e-23
7.668499439306763e-16	7.082324845482457e-23
7.847121737551507e-16	6.873060990637033e-23
8.029904683610427e-16	6.669980325902226e-23
8.216945191420961e-16	6.472900154462227e-23
8.408342432336106e-16	6.281643177705974e-23
8.604197887706452e-16	6.096037335724764e-23
8.804615402686875e-16	5.915915652522234e-23
9.009701241296674e-16	5.741116085798484e-23
9.219564142762094e-16	5.571481381172418e-23
9.434315379171374e-16	5.406858930711488e-23
9.65406881447261e-16	5.2471006356414996e-23
9.878940964845994e-16	5.0920627731129815e-23
1.0109051060482173e-15	4.9416058669042524e-23
1.0344521108799738e-15	4.79559456194487e-23
1.0585475959135102e-15	4.653897502546577e-23
1.0832043368939353e-15	4.5163872142321595e-23
1.1084354071516843e-15	4.382939989056177e-23
1.1342541845341826e-15	4.2534357743135634e-23
1.160674358498951e-15	4.1277580645375083e-23
1.1877099373719357e-15	4.0057937966876104e-23
1.215375255774916e-15	3.8874332484355155e-23
1.2436849822258998e-15	3.772569939455727e-23
1.2726541269165783e-15	3.661100535633048e-23
1.3022980496709155e-15	3.55292475610044e-23
1.3326324680891421e-15	3.4479452830236627e-23
1.363673465881424e-15	3.3460676740515375e-23
1.3954375013956702e-15	3.2472002773530756e-23
1.4279414163439534e-15	3.1512541491650303e-23
1.461202444732223e-15	3.0581429737756775e-23
1.4952382219979892e-15	2.967782985873007e-23
1.5300667943608777e-15	2.88009289518693e-23
1.565706628390963e-15	2.7949938133587113e-23
1.6021766208000002e-15	2.712409182970621e-23
#-------------------------------------
