# SHELL IONIZATION
# Energy (Joules) | Cross Section (m2)
#-------------------------------------
5.2498E-17	1.997E-25
5.3315E-17	7.982E-25
5.4145E-17	1.406E-24
5.4987E-17	2.021E-24
5.5843E-17	2.641E-24
5.6712E-17	3.265E-24
5.7594E-17	3.892E-24
5.8490E-17	4.520E-24
5.9401E-17	5.147E-24
6.0325E-17	5.773E-24
6.1264E-17	6.397E-24
6.2217E-17	7.017E-24
6.3185E-17	7.633E-24
6.4168E-17	8.244E-24
6.5167E-17	8.848E-24
6.6181E-17	9.446E-24
6.7210E-17	1.004E-23
6.8256E-17	1.062E-23
6.9318E-17	1.120E-23
7.0397E-17	1.176E-23
7.1492E-17	1.232E-23
7.2605E-17	1.287E-23
7.3734E-17	1.340E-23
7.4882E-17	1.393E-23
7.6047E-17	1.445E-23
7.7230E-17	1.495E-23
7.8432E-17	1.545E-23
7.9652E-17	1.593E-23
8.0892E-17	1.641E-23
8.2150E-17	1.687E-23
8.3429E-17	1.732E-23
8.4727E-17	1.776E-23
8.6045E-17	1.819E-23
8.7384E-17	1.861E-23
8.8744E-17	1.902E-23
9.0125E-17	1.941E-23
9.1527E-17	1.979E-23
9.2951E-17	2.017E-23
9.4398E-17	2.053E-23
9.5866E-17	2.088E-23
9.7358E-17	2.122E-23
9.8873E-17	2.155E-23
1.0041E-16	2.186E-23
1.0197E-16	2.217E-23
1.0356E-16	2.247E-23
1.0517E-16	2.275E-23
1.0681E-16	2.303E-23
1.0847E-16	2.329E-23
1.1016E-16	2.355E-23
1.1187E-16	2.379E-23
1.1361E-16	2.403E-23
1.1538E-16	2.425E-23
1.1718E-16	2.447E-23
1.1900E-16	2.467E-23
1.2085E-16	2.487E-23
1.2273E-16	2.506E-23
1.2464E-16	2.523E-23
1.2658E-16	2.540E-23
1.2855E-16	2.557E-23
1.3055E-16	2.572E-23
1.3258E-16	2.586E-23
1.3465E-16	2.600E-23
1.3674E-16	2.612E-23
1.3887E-16	2.624E-23
1.4103E-16	2.636E-23
1.4322E-16	2.646E-23
1.4545E-16	2.656E-23
1.4772E-16	2.665E-23
1.5001E-16	2.673E-23
1.5235E-16	2.680E-23
1.5472E-16	2.687E-23
1.5713E-16	2.693E-23
1.5957E-16	2.699E-23
1.6205E-16	2.703E-23
1.6458E-16	2.707E-23
1.6714E-16	2.711E-23
1.6974E-16	2.714E-23
1.7238E-16	2.716E-23
1.7506E-16	2.718E-23
1.7778E-16	2.719E-23
1.8055E-16	2.720E-23
1.8336E-16	2.720E-23
1.8621E-16	2.719E-23
1.8911E-16	2.718E-23
1.9205E-16	2.717E-23
1.9504E-16	2.715E-23
1.9808E-16	2.712E-23
2.0116E-16	2.709E-23
2.0429E-16	2.706E-23
2.0747E-16	2.702E-23
2.1070E-16	2.697E-23
2.1397E-16	2.693E-23
2.1730E-16	2.688E-23
2.2069E-16	2.682E-23
2.2412E-16	2.676E-23
2.2761E-16	2.670E-23
2.3115E-16	2.663E-23
2.3474E-16	2.656E-23
2.3840E-16	2.648E-23
2.4211E-16	2.641E-23
2.4587E-16	2.632E-23
2.4970E-16	2.624E-23
2.5359E-16	2.615E-23
2.5753E-16	2.606E-23
2.6154E-16	2.597E-23
2.6561E-16	2.587E-23
2.6974E-16	2.577E-23
2.7394E-16	2.567E-23
2.7820E-16	2.557E-23
2.8253E-16	2.546E-23
2.8693E-16	2.535E-23
2.9139E-16	2.524E-23
2.9592E-16	2.512E-23
3.0053E-16	2.501E-23
3.0521E-16	2.489E-23
3.0995E-16	2.477E-23
3.1478E-16	2.464E-23
3.1968E-16	2.452E-23
3.2465E-16	2.439E-23
3.2970E-16	2.427E-23
3.3483E-16	2.414E-23
3.4004E-16	2.400E-23
3.4533E-16	2.387E-23
3.5071E-16	2.374E-23
3.5616E-16	2.360E-23
3.6171E-16	2.346E-23
3.6733E-16	2.333E-23
3.7305E-16	2.319E-23
3.7885E-16	2.305E-23
3.8475E-16	2.290E-23
3.9074E-16	2.276E-23
3.9682E-16	2.262E-23
4.0299E-16	2.247E-23
4.0926E-16	2.233E-23
4.1563E-16	2.218E-23
4.2210E-16	2.203E-23
4.2866E-16	2.188E-23
4.3533E-16	2.173E-23
4.4211E-16	2.158E-23
4.4899E-16	2.143E-23
4.5597E-16	2.128E-23
4.6307E-16	2.113E-23
4.7027E-16	2.098E-23
4.7759E-16	2.083E-23
4.8502E-16	2.068E-23
4.9257E-16	2.052E-23
5.0023E-16	2.037E-23
5.0802E-16	2.022E-23
5.1592E-16	2.007E-23
5.2395E-16	1.991E-23
5.3210E-16	1.976E-23
5.4038E-16	1.960E-23
5.4879E-16	1.945E-23
5.5733E-16	1.930E-23
5.6600E-16	1.914E-23
5.7481E-16	1.899E-23
5.8376E-16	1.884E-23
5.9284E-16	1.868E-23
6.0206E-16	1.853E-23
6.1143E-16	1.838E-23
6.2095E-16	1.822E-23
6.3061E-16	1.807E-23
6.4042E-16	1.792E-23
6.5038E-16	1.777E-23
6.6050E-16	1.762E-23
6.7078E-16	1.746E-23
6.8122E-16	1.731E-23
6.9182E-16	1.716E-23
7.0258E-16	1.701E-23
7.1352E-16	1.686E-23
7.2462E-16	1.671E-23
7.3589E-16	1.657E-23
7.4735E-16	1.642E-23
7.5897E-16	1.627E-23
7.7078E-16	1.612E-23
7.8278E-16	1.598E-23
7.9496E-16	1.583E-23
8.0733E-16	1.569E-23
8.1989E-16	1.554E-23
8.3265E-16	1.540E-23
8.4560E-16	1.525E-23
8.5876E-16	1.511E-23
8.7212E-16	1.497E-23
8.8569E-16	1.483E-23
8.9948E-16	1.469E-23
9.1347E-16	1.455E-23
9.2769E-16	1.441E-23
9.4212E-16	1.427E-23
9.5678E-16	1.413E-23
9.7167E-16	1.400E-23
9.8679E-16	1.386E-23
1.0021E-15	1.373E-23
1.0177E-15	1.359E-23
1.0336E-15	1.346E-23
1.0497E-15	1.332E-23
1.0660E-15	1.319E-23
1.0826E-15	1.306E-23
1.0994E-15	1.293E-23
1.1165E-15	1.280E-23
1.1339E-15	1.267E-23
1.1515E-15	1.255E-23
1.1695E-15	1.242E-23
1.1877E-15	1.229E-23
1.2061E-15	1.217E-23
1.2249E-15	1.204E-23
1.2440E-15	1.192E-23
1.2633E-15	1.180E-23
1.2830E-15	1.168E-23
1.3029E-15	1.156E-23
1.3232E-15	1.144E-23
1.3438E-15	1.132E-23
1.3647E-15	1.120E-23
1.3860E-15	1.109E-23
1.4075E-15	1.097E-23
1.4294E-15	1.085E-23
1.4517E-15	1.074E-23
1.4743E-15	1.063E-23
1.4972E-15	1.051E-23
1.5205E-15	1.040E-23
1.5441E-15	1.029E-23
1.5682E-15	1.018E-23
1.5926E-15	1.008E-23
1.6174E-15	9.968E-24
1.6425E-15	9.861E-24
1.6681E-15	9.755E-24
1.6940E-15	9.651E-24
1.7204E-15	9.547E-24
1.7472E-15	9.444E-24
1.7743E-15	9.342E-24
1.8020E-15	9.240E-24
1.8300E-15	9.140E-24
1.8585E-15	9.041E-24
1.8874E-15	8.942E-24
1.9168E-15	8.845E-24
1.9466E-15	8.748E-24
1.9769E-15	8.653E-24
2.0076E-15	8.558E-24
2.0389E-15	8.464E-24
2.0706E-15	8.371E-24
2.1028E-15	8.279E-24
2.1355E-15	8.187E-24
2.1688E-15	8.097E-24
2.2025E-15	8.007E-24
2.2368E-15	7.919E-24
2.2716E-15	7.831E-24
2.3069E-15	7.744E-24
2.3428E-15	7.658E-24
2.3793E-15	7.573E-24
2.4163E-15	7.488E-24
2.4539E-15	7.405E-24
2.4921E-15	7.322E-24
2.5309E-15	7.240E-24
2.5703E-15	7.159E-24
2.6102E-15	7.079E-24
2.6509E-15	7.000E-24
2.6921E-15	6.921E-24
2.7340E-15	6.843E-24
2.7765E-15	6.766E-24
2.8197E-15	6.690E-24
2.8636E-15	6.615E-24
2.9082E-15	6.540E-24
2.9534E-15	6.467E-24
2.9994E-15	6.394E-24
3.0461E-15	6.322E-24
3.0935E-15	6.250E-24
3.1416E-15	6.179E-24
3.1905E-15	6.110E-24
3.2401E-15	6.040E-24
3.2905E-15	5.972E-24
3.3417E-15	5.904E-24
3.3937E-15	5.837E-24
3.4465E-15	5.771E-24
3.5002E-15	5.706E-24
3.5546E-15	5.641E-24
3.6099E-15	5.577E-24
3.6661E-15	5.514E-24
3.7232E-15	5.451E-24
3.7811E-15	5.389E-24
3.8399E-15	5.328E-24
3.8997E-15	5.267E-24
3.9604E-15	5.207E-24
4.0220E-15	5.148E-24
4.0846E-15	5.090E-24
4.1481E-15	5.032E-24
4.2127E-15	4.975E-24
4.2782E-15	4.918E-24
4.3448E-15	4.862E-24
4.4124E-15	4.807E-24
4.4811E-15	4.752E-24
4.5508E-15	4.698E-24
4.6216E-15	4.645E-24
4.6935E-15	4.592E-24
4.7665E-15	4.540E-24
4.8407E-15	4.488E-24
4.9160E-15	4.437E-24
4.9925E-15	4.387E-24
5.0702E-15	4.337E-24
5.1491E-15	4.288E-24
5.2292E-15	4.240E-24
5.3106E-15	4.192E-24
5.3932E-15	4.144E-24
5.4771E-15	4.097E-24
5.5624E-15	4.051E-24
5.6489E-15	4.005E-24
5.7368E-15	3.960E-24
5.8261E-15	3.915E-24
5.9167E-15	3.871E-24
6.0088E-15	3.828E-24
6.1023E-15	3.784E-24
6.1972E-15	3.742E-24
6.2937E-15	3.700E-24
6.3916E-15	3.658E-24
6.4911E-15	3.617E-24
6.5921E-15	3.577E-24
6.6946E-15	3.537E-24
6.7988E-15	3.497E-24
6.9046E-15	3.458E-24
7.0120E-15	3.420E-24
7.1211E-15	3.381E-24
7.2320E-15	3.344E-24
7.3445E-15	3.307E-24
7.4588E-15	3.270E-24
7.5748E-15	3.234E-24
7.6927E-15	3.198E-24
7.8124E-15	3.163E-24
7.9340E-15	3.128E-24
8.0574E-15	3.093E-24
8.1828E-15	3.059E-24
8.3101E-15	3.025E-24
8.4394E-15	2.992E-24
8.5707E-15	2.960E-24
8.7041E-15	2.927E-24
8.8395E-15	2.895E-24
8.9771E-15	2.864E-24
9.1168E-15	2.833E-24
9.2586E-15	2.802E-24
9.4027E-15	2.771E-24
9.5490E-15	2.741E-24
9.6976E-15	2.712E-24
9.8485E-15	2.683E-24
1.0002E-14	2.654E-24
1.0157E-14	2.625E-24
1.0315E-14	2.597E-24
1.0476E-14	2.570E-24
1.0639E-14	2.542E-24
1.0804E-14	2.515E-24
1.0973E-14	2.489E-24
1.1143E-14	2.462E-24
1.1317E-14	2.436E-24
1.1493E-14	2.411E-24
1.1672E-14	2.385E-24
1.1853E-14	2.361E-24
1.2038E-14	2.336E-24
1.2225E-14	2.312E-24
1.2415E-14	2.288E-24
1.2608E-14	2.264E-24
1.2805E-14	2.241E-24
1.3004E-14	2.218E-24
1.3206E-14	2.195E-24
1.3412E-14	2.172E-24
1.3620E-14	2.150E-24
1.3832E-14	2.129E-24
1.4048E-14	2.107E-24
1.4266E-14	2.086E-24
1.4488E-14	2.065E-24
1.4714E-14	2.044E-24
1.4942E-14	2.024E-24
1.5175E-14	2.004E-24
1.5411E-14	1.984E-24
1.5651E-14	1.964E-24
1.5894E-14	1.945E-24
1.6142E-14	1.926E-24
1.6393E-14	1.907E-24
1.6648E-14	1.889E-24
1.6907E-14	1.870E-24
1.7170E-14	1.852E-24
1.7437E-14	1.835E-24
1.7709E-14	1.817E-24
1.7984E-14	1.800E-24
1.8264E-14	1.783E-24
1.8548E-14	1.766E-24
1.8837E-14	1.749E-24
1.9130E-14	1.733E-24
1.9428E-14	1.717E-24
1.9730E-14	1.701E-24
2.0037E-14	1.685E-24
2.0349E-14	1.670E-24
2.0665E-14	1.655E-24
2.0987E-14	1.640E-24
2.1313E-14	1.625E-24
2.1645E-14	1.611E-24
2.1982E-14	1.596E-24
2.2324E-14	1.582E-24
2.2671E-14	1.568E-24
2.3024E-14	1.554E-24
2.3382E-14	1.541E-24
2.3746E-14	1.528E-24
2.4116E-14	1.514E-24
2.4491E-14	1.502E-24
2.4872E-14	1.489E-24
2.5259E-14	1.476E-24
2.5652E-14	1.464E-24
2.6051E-14	1.452E-24
2.6457E-14	1.440E-24
2.6868E-14	1.428E-24
2.7286E-14	1.416E-24
2.7711E-14	1.405E-24
2.8142E-14	1.393E-24
2.8580E-14	1.382E-24
2.9025E-14	1.371E-24
2.9476E-14	1.361E-24
2.9935E-14	1.350E-24
3.0401E-14	1.339E-24
3.0874E-14	1.329E-24
3.1354E-14	1.319E-24
3.1842E-14	1.309E-24
3.2337E-14	1.299E-24
3.2841E-14	1.290E-24
3.3352E-14	1.280E-24
3.3871E-14	1.271E-24
3.4398E-14	1.261E-24
3.4933E-14	1.252E-24
3.5476E-14	1.243E-24
3.6028E-14	1.235E-24
3.6589E-14	1.226E-24
3.7158E-14	1.218E-24
3.7737E-14	1.209E-24
3.8324E-14	1.201E-24
3.8920E-14	1.193E-24
3.9526E-14	1.185E-24
4.0141E-14	1.177E-24
4.0765E-14	1.169E-24
4.1400E-14	1.162E-24
4.2044E-14	1.154E-24
4.2698E-14	1.147E-24
4.3362E-14	1.140E-24
4.4037E-14	1.133E-24
4.4722E-14	1.126E-24
4.5418E-14	1.119E-24
4.6125E-14	1.112E-24
4.6843E-14	1.106E-24
4.7572E-14	1.099E-24
4.8312E-14	1.093E-24
4.9064E-14	1.087E-24
4.9827E-14	1.081E-24
5.0602E-14	1.075E-24
5.1390E-14	1.069E-24
5.2189E-14	1.063E-24
5.3001E-14	1.057E-24
5.3826E-14	1.052E-24
5.4664E-14	1.046E-24
5.5514E-14	1.041E-24
5.6378E-14	1.036E-24
5.7255E-14	1.031E-24
5.8146E-14	1.026E-24
5.9051E-14	1.021E-24
5.9970E-14	1.016E-24
6.0903E-14	1.011E-24
6.1851E-14	1.006E-24
6.2813E-14	1.002E-24
6.3791E-14	9.973E-25
6.4783E-14	9.930E-25
6.5791E-14	9.887E-25
6.6815E-14	9.845E-25
6.7855E-14	9.804E-25
6.8910E-14	9.764E-25
6.9983E-14	9.724E-25
7.1072E-14	9.686E-25
7.2177E-14	9.648E-25
7.3301E-14	9.612E-25
7.4441E-14	9.576E-25
7.5599E-14	9.541E-25
7.6776E-14	9.506E-25
7.7970E-14	9.473E-25
7.9184E-14	9.440E-25
8.0416E-14	9.408E-25
8.1667E-14	9.377E-25
8.2938E-14	9.347E-25
8.4228E-14	9.317E-25
8.5539E-14	9.289E-25
8.6870E-14	9.261E-25
8.8222E-14	9.233E-25
8.9594E-14	9.207E-25
9.0989E-14	9.181E-25
9.2404E-14	9.156E-25
9.3842E-14	9.131E-25
9.5302E-14	9.108E-25
9.6785E-14	9.084E-25
9.8291E-14	9.062E-25
9.9821E-14	9.040E-25
1.0137E-13	9.019E-25
1.0295E-13	8.999E-25
1.0455E-13	8.979E-25
1.0618E-13	8.960E-25
1.0783E-13	8.942E-25
1.0951E-13	8.924E-25
1.1121E-13	8.906E-25
1.1294E-13	8.890E-25
1.1470E-13	8.874E-25
1.1649E-13	8.858E-25
1.1830E-13	8.843E-25
1.2014E-13	8.829E-25
1.2201E-13	8.815E-25
1.2391E-13	8.802E-25
1.2584E-13	8.790E-25
1.2779E-13	8.778E-25
1.2978E-13	8.766E-25
1.3180E-13	8.755E-25
1.3385E-13	8.745E-25
1.3594E-13	8.735E-25
1.3805E-13	8.726E-25
1.4020E-13	8.717E-25
1.4238E-13	8.708E-25
1.4460E-13	8.701E-25
1.4685E-13	8.693E-25
1.4913E-13	8.686E-25
1.5145E-13	8.680E-25
1.5381E-13	8.674E-25
1.5620E-13	8.669E-25
1.5863E-13	8.664E-25
1.6110E-13	8.659E-25
1.6361E-13	8.655E-25
1.6615E-13	8.651E-25
1.6874E-13	8.648E-25
1.7136E-13	8.645E-25
1.7403E-13	8.643E-25
1.7674E-13	8.641E-25
1.7949E-13	8.640E-25
1.8228E-13	8.639E-25
1.8512E-13	8.638E-25
1.8800E-13	8.638E-25
1.9092E-13	8.638E-25
1.9389E-13	8.638E-25
1.9691E-13	8.639E-25
1.9998E-13	8.641E-25
2.0309E-13	8.642E-25
2.0625E-13	8.644E-25
2.0946E-13	8.647E-25
2.1272E-13	8.649E-25
2.1603E-13	8.653E-25
2.1939E-13	8.656E-25
2.2280E-13	8.660E-25
2.2627E-13	8.664E-25
2.2979E-13	8.668E-25
2.3336E-13	8.673E-25
2.3699E-13	8.678E-25
2.4068E-13	8.684E-25
2.4443E-13	8.690E-25
2.4823E-13	8.696E-25
2.5209E-13	8.702E-25
2.5602E-13	8.709E-25
2.6000E-13	8.716E-25
2.6405E-13	8.723E-25
2.6815E-13	8.731E-25
2.7233E-13	8.738E-25
2.7656E-13	8.747E-25
2.8087E-13	8.755E-25
2.8524E-13	8.764E-25
2.8968E-13	8.773E-25
2.9418E-13	8.782E-25
2.9876E-13	8.791E-25
3.0341E-13	8.801E-25
3.0813E-13	8.811E-25
3.1293E-13	8.821E-25
3.1779E-13	8.832E-25
3.2274E-13	8.843E-25
3.2776E-13	8.854E-25
3.3286E-13	8.865E-25
3.3804E-13	8.876E-25
3.4330E-13	8.888E-25
3.4864E-13	8.900E-25
3.5407E-13	8.912E-25
3.5958E-13	8.924E-25
3.6517E-13	8.937E-25
3.7085E-13	8.949E-25
3.7662E-13	8.962E-25
3.8248E-13	8.975E-25
3.8844E-13	8.989E-25
3.9448E-13	9.002E-25
4.0062E-13	9.016E-25
4.0685E-13	9.030E-25
4.1318E-13	9.044E-25
4.1961E-13	9.058E-25
4.2614E-13	9.073E-25
4.3277E-13	9.087E-25
4.3951E-13	9.102E-25
4.4635E-13	9.117E-25
4.5329E-13	9.132E-25
4.6034E-13	9.148E-25
4.6751E-13	9.163E-25
4.7478E-13	9.179E-25
4.8217E-13	9.195E-25
4.8967E-13	9.211E-25
4.9729E-13	9.227E-25
5.0503E-13	9.243E-25
5.1289E-13	9.259E-25
5.2087E-13	9.276E-25
5.2897E-13	9.293E-25
5.3720E-13	9.309E-25
5.4556E-13	9.326E-25
5.5405E-13	9.343E-25
5.6267E-13	9.361E-25
5.7143E-13	9.378E-25
5.8032E-13	9.396E-25
5.8935E-13	9.413E-25
5.9852E-13	9.431E-25
6.0783E-13	9.449E-25
6.1729E-13	9.467E-25
6.2690E-13	9.485E-25
6.3665E-13	9.503E-25
6.4656E-13	9.521E-25
6.5662E-13	9.540E-25
6.6684E-13	9.558E-25
6.7721E-13	9.577E-25
6.8775E-13	9.596E-25
6.9845E-13	9.614E-25
7.0932E-13	9.633E-25
7.2036E-13	9.652E-25
7.3156E-13	9.672E-25
7.4295E-13	9.691E-25
7.5451E-13	9.710E-25
7.6625E-13	9.730E-25
7.7817E-13	9.749E-25
7.9028E-13	9.769E-25
8.0258E-13	9.788E-25
8.1507E-13	9.808E-25
8.2775E-13	9.828E-25
8.4063E-13	9.848E-25
8.5371E-13	9.868E-25
8.6699E-13	9.888E-25
8.8048E-13	9.908E-25
8.9418E-13	9.928E-25
9.0810E-13	9.949E-25
9.2223E-13	9.969E-25
9.3658E-13	9.990E-25
9.5115E-13	1.001E-24
9.6595E-13	1.003E-24
9.8098E-13	1.005E-24
9.9625E-13	1.007E-24
1.0117E-12	1.009E-24
1.0275E-12	1.011E-24
1.0435E-12	1.013E-24
1.0597E-12	1.016E-24
1.0762E-12	1.018E-24
1.0930E-12	1.020E-24
1.1100E-12	1.022E-24
1.1272E-12	1.024E-24
1.1448E-12	1.026E-24
1.1626E-12	1.028E-24
1.1807E-12	1.030E-24
1.1990E-12	1.033E-24
1.2177E-12	1.035E-24
1.2366E-12	1.037E-24
1.2559E-12	1.039E-24
1.2754E-12	1.041E-24
1.2953E-12	1.043E-24
1.3154E-12	1.046E-24
1.3359E-12	1.048E-24
1.3567E-12	1.050E-24
1.3778E-12	1.052E-24
1.3992E-12	1.054E-24
1.4210E-12	1.056E-24
1.4431E-12	1.059E-24
1.4656E-12	1.061E-24
1.4884E-12	1.063E-24
1.5115E-12	1.065E-24
1.5351E-12	1.067E-24
1.5589E-12	1.070E-24
1.5832E-12	1.072E-24
1.6078E-12	1.074E-24
1.6329E-12	1.076E-24
1.6583E-12	1.079E-24
1.6841E-12	1.081E-24
1.7103E-12	1.083E-24
1.7369E-12	1.085E-24
1.7639E-12	1.088E-24
1.7914E-12	1.090E-24
1.8192E-12	1.092E-24
1.8475E-12	1.094E-24
1.8763E-12	1.097E-24
1.9055E-12	1.099E-24
1.9351E-12	1.101E-24
1.9652E-12	1.103E-24
1.9958E-12	1.106E-24
2.0269E-12	1.108E-24
2.0584E-12	1.110E-24
2.0904E-12	1.112E-24
2.1230E-12	1.115E-24
2.1560E-12	1.117E-24
2.1896E-12	1.119E-24
2.2236E-12	1.122E-24
2.2582E-12	1.124E-24
2.2934E-12	1.126E-24
2.3290E-12	1.128E-24
2.3653E-12	1.131E-24
2.4021E-12	1.133E-24
2.4395E-12	1.135E-24
2.4774E-12	1.138E-24
2.5160E-12	1.140E-24
2.5551E-12	1.142E-24
2.5949E-12	1.145E-24
2.6353E-12	1.147E-24
2.6763E-12	1.149E-24
2.7179E-12	1.152E-24
2.7602E-12	1.154E-24
2.8032E-12	1.156E-24
2.8468E-12	1.158E-24
2.8911E-12	1.161E-24
2.9361E-12	1.163E-24
2.9817E-12	1.165E-24
3.0281E-12	1.168E-24
3.0753E-12	1.170E-24
3.1231E-12	1.172E-24
3.1717E-12	1.175E-24
3.2211E-12	1.177E-24
3.2712E-12	1.179E-24
3.3221E-12	1.182E-24
3.3738E-12	1.184E-24
3.4263E-12	1.186E-24
3.4796E-12	1.189E-24
3.5337E-12	1.191E-24
3.5887E-12	1.193E-24
3.6445E-12	1.196E-24
3.7013E-12	1.198E-24
3.7588E-12	1.200E-24
3.8173E-12	1.203E-24
3.8767E-12	1.205E-24
3.9371E-12	1.208E-24
3.9983E-12	1.210E-24
4.0605E-12	1.212E-24
4.1237E-12	1.215E-24
4.1879E-12	1.217E-24
4.2530E-12	1.219E-24
4.3192E-12	1.222E-24
4.3864E-12	1.224E-24
4.4547E-12	1.226E-24
4.5240E-12	1.229E-24
4.5944E-12	1.231E-24
4.6659E-12	1.233E-24
4.7385E-12	1.236E-24
4.8122E-12	1.238E-24
4.8871E-12	1.240E-24
4.9631E-12	1.243E-24
5.0404E-12	1.245E-24
5.1188E-12	1.248E-24
5.1984E-12	1.250E-24
5.2793E-12	1.252E-24
5.3615E-12	1.255E-24
5.4449E-12	1.257E-24
5.5296E-12	1.259E-24
5.6157E-12	1.262E-24
5.7031E-12	1.264E-24
5.7918E-12	1.267E-24
5.8819E-12	1.269E-24
5.9734E-12	1.271E-24
6.0664E-12	1.274E-24
6.1608E-12	1.276E-24
6.2566E-12	1.278E-24
6.3540E-12	1.281E-24
6.4529E-12	1.283E-24
6.5533E-12	1.286E-24
6.6553E-12	1.288E-24
6.7588E-12	1.290E-24
6.8640E-12	1.293E-24
6.9708E-12	1.295E-24
7.0792E-12	1.297E-24
7.1894E-12	1.300E-24
7.3013E-12	1.302E-24
7.4149E-12	1.305E-24
7.5303E-12	1.307E-24
7.6474E-12	1.309E-24
7.7664E-12	1.312E-24
7.8873E-12	1.314E-24
8.0100E-12	1.316E-24
#-------------------------------------
