# SHELL IONIZATION
# Energy (Joules) | Cross Section (m2)
#-------------------------------------
4.0378E-17	2.211E-24
4.1007E-17	5.236E-24
4.1645E-17	8.302E-24
4.2293E-17	1.140E-23
4.2951E-17	1.452E-23
4.3619E-17	1.766E-23
4.4298E-17	2.080E-23
4.4987E-17	2.395E-23
4.5687E-17	2.709E-23
4.6398E-17	3.023E-23
4.7120E-17	3.335E-23
4.7853E-17	3.644E-23
4.8598E-17	3.952E-23
4.9354E-17	4.256E-23
5.0122E-17	4.558E-23
5.0902E-17	4.855E-23
5.1694E-17	5.150E-23
5.2498E-17	5.440E-23
5.3315E-17	5.725E-23
5.4145E-17	6.006E-23
5.4987E-17	6.283E-23
5.5843E-17	6.554E-23
5.6712E-17	6.821E-23
5.7594E-17	7.082E-23
5.8490E-17	7.339E-23
5.9401E-17	7.589E-23
6.0325E-17	7.835E-23
6.1264E-17	8.075E-23
6.2217E-17	8.309E-23
6.3185E-17	8.537E-23
6.4168E-17	8.760E-23
6.5167E-17	8.978E-23
6.6181E-17	9.190E-23
6.7210E-17	9.396E-23
6.8256E-17	9.596E-23
6.9318E-17	9.791E-23
7.0397E-17	9.980E-23
7.1492E-17	1.016E-22
7.2605E-17	1.034E-22
7.3734E-17	1.051E-22
7.4882E-17	1.068E-22
7.6047E-17	1.084E-22
7.7230E-17	1.100E-22
7.8432E-17	1.115E-22
7.9652E-17	1.129E-22
8.0892E-17	1.143E-22
8.2150E-17	1.157E-22
8.3429E-17	1.170E-22
8.4727E-17	1.182E-22
8.6045E-17	1.195E-22
8.7384E-17	1.206E-22
8.8744E-17	1.217E-22
9.0125E-17	1.228E-22
9.1527E-17	1.238E-22
9.2951E-17	1.247E-22
9.4398E-17	1.257E-22
9.5866E-17	1.265E-22
9.7358E-17	1.274E-22
9.8873E-17	1.281E-22
1.0041E-16	1.289E-22
1.0197E-16	1.296E-22
1.0356E-16	1.303E-22
1.0517E-16	1.309E-22
1.0681E-16	1.315E-22
1.0847E-16	1.320E-22
1.1016E-16	1.325E-22
1.1187E-16	1.330E-22
1.1361E-16	1.334E-22
1.1538E-16	1.338E-22
1.1718E-16	1.342E-22
1.1900E-16	1.345E-22
1.2085E-16	1.348E-22
1.2273E-16	1.351E-22
1.2464E-16	1.353E-22
1.2658E-16	1.355E-22
1.2855E-16	1.357E-22
1.3055E-16	1.358E-22
1.3258E-16	1.359E-22
1.3465E-16	1.360E-22
1.3674E-16	1.361E-22
1.3887E-16	1.361E-22
1.4103E-16	1.361E-22
1.4322E-16	1.361E-22
1.4545E-16	1.360E-22
1.4772E-16	1.359E-22
1.5001E-16	1.358E-22
1.5235E-16	1.357E-22
1.5472E-16	1.356E-22
1.5713E-16	1.354E-22
1.5957E-16	1.352E-22
1.6205E-16	1.350E-22
1.6458E-16	1.348E-22
1.6714E-16	1.345E-22
1.6974E-16	1.342E-22
1.7238E-16	1.339E-22
1.7506E-16	1.336E-22
1.7778E-16	1.333E-22
1.8055E-16	1.329E-22
1.8336E-16	1.326E-22
1.8621E-16	1.322E-22
1.8911E-16	1.318E-22
1.9205E-16	1.314E-22
1.9504E-16	1.309E-22
1.9808E-16	1.305E-22
2.0116E-16	1.300E-22
2.0429E-16	1.296E-22
2.0747E-16	1.291E-22
2.1070E-16	1.286E-22
2.1397E-16	1.281E-22
2.1730E-16	1.275E-22
2.2069E-16	1.270E-22
2.2412E-16	1.264E-22
2.2761E-16	1.259E-22
2.3115E-16	1.253E-22
2.3474E-16	1.247E-22
2.3840E-16	1.241E-22
2.4211E-16	1.235E-22
2.4587E-16	1.229E-22
2.4970E-16	1.223E-22
2.5359E-16	1.217E-22
2.5753E-16	1.210E-22
2.6154E-16	1.204E-22
2.6561E-16	1.197E-22
2.6974E-16	1.190E-22
2.7394E-16	1.184E-22
2.7820E-16	1.177E-22
2.8253E-16	1.170E-22
2.8693E-16	1.163E-22
2.9139E-16	1.156E-22
2.9592E-16	1.149E-22
3.0053E-16	1.142E-22
3.0521E-16	1.135E-22
3.0995E-16	1.128E-22
3.1478E-16	1.121E-22
3.1968E-16	1.113E-22
3.2465E-16	1.106E-22
3.2970E-16	1.099E-22
3.3483E-16	1.091E-22
3.4004E-16	1.084E-22
3.4533E-16	1.077E-22
3.5071E-16	1.069E-22
3.5616E-16	1.062E-22
3.6171E-16	1.054E-22
3.6733E-16	1.047E-22
3.7305E-16	1.039E-22
3.7885E-16	1.032E-22
3.8475E-16	1.024E-22
3.9074E-16	1.016E-22
3.9682E-16	1.009E-22
4.0299E-16	1.001E-22
4.0926E-16	9.936E-23
4.1563E-16	9.860E-23
4.2210E-16	9.783E-23
4.2866E-16	9.707E-23
4.3533E-16	9.631E-23
4.4211E-16	9.554E-23
4.4899E-16	9.478E-23
4.5597E-16	9.402E-23
4.6307E-16	9.326E-23
4.7027E-16	9.249E-23
4.7759E-16	9.173E-23
4.8502E-16	9.098E-23
4.9257E-16	9.022E-23
5.0023E-16	8.946E-23
5.0802E-16	8.871E-23
5.1592E-16	8.795E-23
5.2395E-16	8.720E-23
5.3210E-16	8.645E-23
5.4038E-16	8.570E-23
5.4879E-16	8.496E-23
5.5733E-16	8.421E-23
5.6600E-16	8.347E-23
5.7481E-16	8.273E-23
5.8376E-16	8.199E-23
5.9284E-16	8.126E-23
6.0206E-16	8.053E-23
6.1143E-16	7.980E-23
6.2095E-16	7.907E-23
6.3061E-16	7.835E-23
6.4042E-16	7.763E-23
6.5038E-16	7.691E-23
6.6050E-16	7.620E-23
6.7078E-16	7.549E-23
6.8122E-16	7.478E-23
6.9182E-16	7.408E-23
7.0258E-16	7.338E-23
7.1352E-16	7.268E-23
7.2462E-16	7.199E-23
7.3589E-16	7.130E-23
7.4735E-16	7.061E-23
7.5897E-16	6.993E-23
7.7078E-16	6.925E-23
7.8278E-16	6.858E-23
7.9496E-16	6.791E-23
8.0733E-16	6.724E-23
8.1989E-16	6.658E-23
8.3265E-16	6.592E-23
8.4560E-16	6.527E-23
8.5876E-16	6.462E-23
8.7212E-16	6.397E-23
8.8569E-16	6.333E-23
8.9948E-16	6.270E-23
9.1347E-16	6.206E-23
9.2769E-16	6.143E-23
9.4212E-16	6.081E-23
9.5678E-16	6.019E-23
9.7167E-16	5.957E-23
9.8679E-16	5.896E-23
1.0021E-15	5.836E-23
1.0177E-15	5.775E-23
1.0336E-15	5.716E-23
1.0497E-15	5.656E-23
1.0660E-15	5.597E-23
1.0826E-15	5.539E-23
1.0994E-15	5.481E-23
1.1165E-15	5.423E-23
1.1339E-15	5.366E-23
1.1515E-15	5.310E-23
1.1695E-15	5.254E-23
1.1877E-15	5.198E-23
1.2061E-15	5.143E-23
1.2249E-15	5.088E-23
1.2440E-15	5.034E-23
1.2633E-15	4.980E-23
1.2830E-15	4.926E-23
1.3029E-15	4.873E-23
1.3232E-15	4.821E-23
1.3438E-15	4.769E-23
1.3647E-15	4.717E-23
1.3860E-15	4.666E-23
1.4075E-15	4.615E-23
1.4294E-15	4.565E-23
1.4517E-15	4.515E-23
1.4743E-15	4.466E-23
1.4972E-15	4.417E-23
1.5205E-15	4.368E-23
1.5441E-15	4.320E-23
1.5682E-15	4.273E-23
1.5926E-15	4.225E-23
1.6174E-15	4.179E-23
1.6425E-15	4.132E-23
1.6681E-15	4.087E-23
1.6940E-15	4.041E-23
1.7204E-15	3.996E-23
1.7472E-15	3.952E-23
1.7743E-15	3.908E-23
1.8020E-15	3.864E-23
1.8300E-15	3.821E-23
1.8585E-15	3.778E-23
1.8874E-15	3.735E-23
1.9168E-15	3.693E-23
1.9466E-15	3.652E-23
1.9769E-15	3.611E-23
2.0076E-15	3.570E-23
2.0389E-15	3.530E-23
2.0706E-15	3.490E-23
2.1028E-15	3.450E-23
2.1355E-15	3.411E-23
2.1688E-15	3.372E-23
2.2025E-15	3.334E-23
2.2368E-15	3.296E-23
2.2716E-15	3.259E-23
2.3069E-15	3.222E-23
2.3428E-15	3.185E-23
2.3793E-15	3.148E-23
2.4163E-15	3.113E-23
2.4539E-15	3.077E-23
2.4921E-15	3.042E-23
2.5309E-15	3.007E-23
2.5703E-15	2.972E-23
2.6102E-15	2.938E-23
2.6509E-15	2.905E-23
2.6921E-15	2.871E-23
2.7340E-15	2.838E-23
2.7765E-15	2.806E-23
2.8197E-15	2.773E-23
2.8636E-15	2.741E-23
2.9082E-15	2.710E-23
2.9534E-15	2.679E-23
2.9994E-15	2.648E-23
3.0461E-15	2.617E-23
3.0935E-15	2.587E-23
3.1416E-15	2.557E-23
3.1905E-15	2.528E-23
3.2401E-15	2.498E-23
3.2905E-15	2.470E-23
3.3417E-15	2.441E-23
3.3937E-15	2.413E-23
3.4465E-15	2.385E-23
3.5002E-15	2.357E-23
3.5546E-15	2.330E-23
3.6099E-15	2.303E-23
3.6661E-15	2.276E-23
3.7232E-15	2.250E-23
3.7811E-15	2.224E-23
3.8399E-15	2.198E-23
3.8997E-15	2.173E-23
3.9604E-15	2.148E-23
4.0220E-15	2.123E-23
4.0846E-15	2.098E-23
4.1481E-15	2.074E-23
4.2127E-15	2.050E-23
4.2782E-15	2.026E-23
4.3448E-15	2.003E-23
4.4124E-15	1.980E-23
4.4811E-15	1.957E-23
4.5508E-15	1.934E-23
4.6216E-15	1.912E-23
4.6935E-15	1.890E-23
4.7665E-15	1.868E-23
4.8407E-15	1.847E-23
4.9160E-15	1.825E-23
4.9925E-15	1.804E-23
5.0702E-15	1.784E-23
5.1491E-15	1.763E-23
5.2292E-15	1.743E-23
5.3106E-15	1.723E-23
5.3932E-15	1.703E-23
5.4771E-15	1.683E-23
5.5624E-15	1.664E-23
5.6489E-15	1.645E-23
5.7368E-15	1.626E-23
5.8261E-15	1.608E-23
5.9167E-15	1.589E-23
6.0088E-15	1.571E-23
6.1023E-15	1.553E-23
6.1972E-15	1.536E-23
6.2937E-15	1.518E-23
6.3916E-15	1.501E-23
6.4911E-15	1.484E-23
6.5921E-15	1.467E-23
6.6946E-15	1.450E-23
6.7988E-15	1.434E-23
6.9046E-15	1.418E-23
7.0120E-15	1.402E-23
7.1211E-15	1.386E-23
7.2320E-15	1.370E-23
7.3445E-15	1.355E-23
7.4588E-15	1.340E-23
7.5748E-15	1.324E-23
7.6927E-15	1.310E-23
7.8124E-15	1.295E-23
7.9340E-15	1.281E-23
8.0574E-15	1.266E-23
8.1828E-15	1.252E-23
8.3101E-15	1.238E-23
8.4394E-15	1.225E-23
8.5707E-15	1.211E-23
8.7041E-15	1.198E-23
8.8395E-15	1.184E-23
8.9771E-15	1.171E-23
9.1168E-15	1.158E-23
9.2586E-15	1.146E-23
9.4027E-15	1.133E-23
9.5490E-15	1.121E-23
9.6976E-15	1.109E-23
9.8485E-15	1.096E-23
1.0002E-14	1.085E-23
1.0157E-14	1.073E-23
1.0315E-14	1.061E-23
1.0476E-14	1.050E-23
1.0639E-14	1.039E-23
1.0804E-14	1.027E-23
1.0973E-14	1.016E-23
1.1143E-14	1.006E-23
1.1317E-14	9.948E-24
1.1493E-14	9.842E-24
1.1672E-14	9.738E-24
1.1853E-14	9.635E-24
1.2038E-14	9.534E-24
1.2225E-14	9.434E-24
1.2415E-14	9.335E-24
1.2608E-14	9.237E-24
1.2805E-14	9.141E-24
1.3004E-14	9.046E-24
1.3206E-14	8.953E-24
1.3412E-14	8.861E-24
1.3620E-14	8.769E-24
1.3832E-14	8.680E-24
1.4048E-14	8.591E-24
1.4266E-14	8.504E-24
1.4488E-14	8.417E-24
1.4714E-14	8.332E-24
1.4942E-14	8.248E-24
1.5175E-14	8.166E-24
1.5411E-14	8.084E-24
1.5651E-14	8.004E-24
1.5894E-14	7.924E-24
1.6142E-14	7.846E-24
1.6393E-14	7.769E-24
1.6648E-14	7.693E-24
1.6907E-14	7.618E-24
1.7170E-14	7.544E-24
1.7437E-14	7.471E-24
1.7709E-14	7.399E-24
1.7984E-14	7.328E-24
1.8264E-14	7.258E-24
1.8548E-14	7.189E-24
1.8837E-14	7.121E-24
1.9130E-14	7.054E-24
1.9428E-14	6.988E-24
1.9730E-14	6.923E-24
2.0037E-14	6.859E-24
2.0349E-14	6.795E-24
2.0665E-14	6.733E-24
2.0987E-14	6.671E-24
2.1313E-14	6.611E-24
2.1645E-14	6.551E-24
2.1982E-14	6.492E-24
2.2324E-14	6.434E-24
2.2671E-14	6.377E-24
2.3024E-14	6.321E-24
2.3382E-14	6.265E-24
2.3746E-14	6.211E-24
2.4116E-14	6.157E-24
2.4491E-14	6.104E-24
2.4872E-14	6.052E-24
2.5259E-14	6.000E-24
2.5652E-14	5.949E-24
2.6051E-14	5.899E-24
2.6457E-14	5.850E-24
2.6868E-14	5.802E-24
2.7286E-14	5.754E-24
2.7711E-14	5.707E-24
2.8142E-14	5.661E-24
2.8580E-14	5.615E-24
2.9025E-14	5.570E-24
2.9476E-14	5.526E-24
2.9935E-14	5.482E-24
3.0401E-14	5.439E-24
3.0874E-14	5.397E-24
3.1354E-14	5.356E-24
3.1842E-14	5.315E-24
3.2337E-14	5.274E-24
3.2841E-14	5.235E-24
3.3352E-14	5.196E-24
3.3871E-14	5.157E-24
3.4398E-14	5.120E-24
3.4933E-14	5.083E-24
3.5476E-14	5.046E-24
3.6028E-14	5.010E-24
3.6589E-14	4.975E-24
3.7158E-14	4.940E-24
3.7737E-14	4.906E-24
3.8324E-14	4.872E-24
3.8920E-14	4.839E-24
3.9526E-14	4.806E-24
4.0141E-14	4.774E-24
4.0765E-14	4.743E-24
4.1400E-14	4.712E-24
4.2044E-14	4.681E-24
4.2698E-14	4.652E-24
4.3362E-14	4.622E-24
4.4037E-14	4.593E-24
4.4722E-14	4.565E-24
4.5418E-14	4.537E-24
4.6125E-14	4.510E-24
4.6843E-14	4.483E-24
4.7572E-14	4.456E-24
4.8312E-14	4.430E-24
4.9064E-14	4.405E-24
4.9827E-14	4.380E-24
5.0602E-14	4.355E-24
5.1390E-14	4.331E-24
5.2189E-14	4.307E-24
5.3001E-14	4.284E-24
5.3826E-14	4.261E-24
5.4664E-14	4.239E-24
5.5514E-14	4.217E-24
5.6378E-14	4.195E-24
5.7255E-14	4.174E-24
5.8146E-14	4.154E-24
5.9051E-14	4.133E-24
5.9970E-14	4.113E-24
6.0903E-14	4.094E-24
6.1851E-14	4.075E-24
6.2813E-14	4.056E-24
6.3791E-14	4.038E-24
6.4783E-14	4.020E-24
6.5791E-14	4.002E-24
6.6815E-14	3.985E-24
6.7855E-14	3.968E-24
6.8910E-14	3.951E-24
6.9983E-14	3.935E-24
7.1072E-14	3.920E-24
7.2177E-14	3.904E-24
7.3301E-14	3.889E-24
7.4441E-14	3.874E-24
7.5599E-14	3.860E-24
7.6776E-14	3.846E-24
7.7970E-14	3.832E-24
7.9184E-14	3.819E-24
8.0416E-14	3.805E-24
8.1667E-14	3.793E-24
8.2938E-14	3.780E-24
8.4228E-14	3.768E-24
8.5539E-14	3.756E-24
8.6870E-14	3.745E-24
8.8222E-14	3.733E-24
8.9594E-14	3.722E-24
9.0989E-14	3.712E-24
9.2404E-14	3.701E-24
9.3842E-14	3.691E-24
9.5302E-14	3.681E-24
9.6785E-14	3.672E-24
9.8291E-14	3.662E-24
9.9821E-14	3.653E-24
1.0137E-13	3.645E-24
1.0295E-13	3.636E-24
1.0455E-13	3.628E-24
1.0618E-13	3.620E-24
1.0783E-13	3.612E-24
1.0951E-13	3.605E-24
1.1121E-13	3.598E-24
1.1294E-13	3.591E-24
1.1470E-13	3.584E-24
1.1649E-13	3.578E-24
1.1830E-13	3.572E-24
1.2014E-13	3.566E-24
1.2201E-13	3.560E-24
1.2391E-13	3.554E-24
1.2584E-13	3.549E-24
1.2779E-13	3.544E-24
1.2978E-13	3.539E-24
1.3180E-13	3.534E-24
1.3385E-13	3.530E-24
1.3594E-13	3.526E-24
1.3805E-13	3.522E-24
1.4020E-13	3.518E-24
1.4238E-13	3.514E-24
1.4460E-13	3.511E-24
1.4685E-13	3.508E-24
1.4913E-13	3.505E-24
1.5145E-13	3.502E-24
1.5381E-13	3.500E-24
1.5620E-13	3.497E-24
1.5863E-13	3.495E-24
1.6110E-13	3.493E-24
1.6361E-13	3.491E-24
1.6615E-13	3.489E-24
1.6874E-13	3.488E-24
1.7136E-13	3.487E-24
1.7403E-13	3.485E-24
1.7674E-13	3.484E-24
1.7949E-13	3.484E-24
1.8228E-13	3.483E-24
1.8512E-13	3.482E-24
1.8800E-13	3.482E-24
1.9092E-13	3.482E-24
1.9389E-13	3.482E-24
1.9691E-13	3.482E-24
1.9998E-13	3.483E-24
2.0309E-13	3.483E-24
2.0625E-13	3.484E-24
2.0946E-13	3.484E-24
2.1272E-13	3.485E-24
2.1603E-13	3.486E-24
2.1939E-13	3.487E-24
2.2280E-13	3.489E-24
2.2627E-13	3.490E-24
2.2979E-13	3.492E-24
2.3336E-13	3.494E-24
2.3699E-13	3.495E-24
2.4068E-13	3.497E-24
2.4443E-13	3.500E-24
2.4823E-13	3.502E-24
2.5209E-13	3.504E-24
2.5602E-13	3.507E-24
2.6000E-13	3.509E-24
2.6405E-13	3.512E-24
2.6815E-13	3.515E-24
2.7233E-13	3.518E-24
2.7656E-13	3.521E-24
2.8087E-13	3.524E-24
2.8524E-13	3.527E-24
2.8968E-13	3.531E-24
2.9418E-13	3.534E-24
2.9876E-13	3.538E-24
3.0341E-13	3.542E-24
3.0813E-13	3.545E-24
3.1293E-13	3.549E-24
3.1779E-13	3.553E-24
3.2274E-13	3.557E-24
3.2776E-13	3.562E-24
3.3286E-13	3.566E-24
3.3804E-13	3.570E-24
3.4330E-13	3.575E-24
3.4864E-13	3.579E-24
3.5407E-13	3.584E-24
3.5958E-13	3.589E-24
3.6517E-13	3.594E-24
3.7085E-13	3.599E-24
3.7662E-13	3.604E-24
3.8248E-13	3.609E-24
3.8844E-13	3.614E-24
3.9448E-13	3.619E-24
4.0062E-13	3.624E-24
4.0685E-13	3.630E-24
4.1318E-13	3.635E-24
4.1961E-13	3.641E-24
4.2614E-13	3.646E-24
4.3277E-13	3.652E-24
4.3951E-13	3.658E-24
4.4635E-13	3.664E-24
4.5329E-13	3.670E-24
4.6034E-13	3.676E-24
4.6751E-13	3.682E-24
4.7478E-13	3.688E-24
4.8217E-13	3.694E-24
4.8967E-13	3.700E-24
4.9729E-13	3.706E-24
5.0503E-13	3.713E-24
5.1289E-13	3.719E-24
5.2087E-13	3.726E-24
5.2897E-13	3.732E-24
5.3720E-13	3.739E-24
5.4556E-13	3.745E-24
5.5405E-13	3.752E-24
5.6267E-13	3.759E-24
5.7143E-13	3.765E-24
5.8032E-13	3.772E-24
5.8935E-13	3.779E-24
5.9852E-13	3.786E-24
6.0783E-13	3.793E-24
6.1729E-13	3.800E-24
6.2690E-13	3.807E-24
6.3665E-13	3.814E-24
6.4656E-13	3.821E-24
6.5662E-13	3.829E-24
6.6684E-13	3.836E-24
6.7721E-13	3.843E-24
6.8775E-13	3.850E-24
6.9845E-13	3.858E-24
7.0932E-13	3.865E-24
7.2036E-13	3.873E-24
7.3156E-13	3.880E-24
7.4295E-13	3.888E-24
7.5451E-13	3.895E-24
7.6625E-13	3.903E-24
7.7817E-13	3.910E-24
7.9028E-13	3.918E-24
8.0258E-13	3.926E-24
8.1507E-13	3.934E-24
8.2775E-13	3.941E-24
8.4063E-13	3.949E-24
8.5371E-13	3.957E-24
8.6699E-13	3.965E-24
8.8048E-13	3.973E-24
8.9418E-13	3.981E-24
9.0810E-13	3.989E-24
9.2223E-13	3.997E-24
9.3658E-13	4.005E-24
9.5115E-13	4.013E-24
9.6595E-13	4.021E-24
9.8098E-13	4.029E-24
9.9625E-13	4.037E-24
1.0117E-12	4.045E-24
1.0275E-12	4.053E-24
1.0435E-12	4.061E-24
1.0597E-12	4.070E-24
1.0762E-12	4.078E-24
1.0930E-12	4.086E-24
1.1100E-12	4.094E-24
1.1272E-12	4.103E-24
1.1448E-12	4.111E-24
1.1626E-12	4.119E-24
1.1807E-12	4.128E-24
1.1990E-12	4.136E-24
1.2177E-12	4.145E-24
1.2366E-12	4.153E-24
1.2559E-12	4.162E-24
1.2754E-12	4.170E-24
1.2953E-12	4.179E-24
1.3154E-12	4.187E-24
1.3359E-12	4.196E-24
1.3567E-12	4.204E-24
1.3778E-12	4.213E-24
1.3992E-12	4.221E-24
1.4210E-12	4.230E-24
1.4431E-12	4.239E-24
1.4656E-12	4.247E-24
1.4884E-12	4.256E-24
1.5115E-12	4.265E-24
1.5351E-12	4.273E-24
1.5589E-12	4.282E-24
1.5832E-12	4.291E-24
1.6078E-12	4.299E-24
1.6329E-12	4.308E-24
1.6583E-12	4.317E-24
1.6841E-12	4.326E-24
1.7103E-12	4.334E-24
1.7369E-12	4.343E-24
1.7639E-12	4.352E-24
1.7914E-12	4.361E-24
1.8192E-12	4.370E-24
1.8475E-12	4.379E-24
1.8763E-12	4.387E-24
1.9055E-12	4.396E-24
1.9351E-12	4.405E-24
1.9652E-12	4.414E-24
1.9958E-12	4.423E-24
2.0269E-12	4.432E-24
2.0584E-12	4.441E-24
2.0904E-12	4.450E-24
2.1230E-12	4.459E-24
2.1560E-12	4.468E-24
2.1896E-12	4.477E-24
2.2236E-12	4.486E-24
2.2582E-12	4.495E-24
2.2934E-12	4.504E-24
2.3290E-12	4.513E-24
2.3653E-12	4.522E-24
2.4021E-12	4.531E-24
2.4395E-12	4.540E-24
2.4774E-12	4.549E-24
2.5160E-12	4.558E-24
2.5551E-12	4.567E-24
2.5949E-12	4.576E-24
2.6353E-12	4.585E-24
2.6763E-12	4.594E-24
2.7179E-12	4.603E-24
2.7602E-12	4.612E-24
2.8032E-12	4.621E-24
2.8468E-12	4.630E-24
2.8911E-12	4.639E-24
2.9361E-12	4.648E-24
2.9817E-12	4.658E-24
3.0281E-12	4.667E-24
3.0753E-12	4.676E-24
3.1231E-12	4.685E-24
3.1717E-12	4.694E-24
3.2211E-12	4.703E-24
3.2712E-12	4.712E-24
3.3221E-12	4.722E-24
3.3738E-12	4.731E-24
3.4263E-12	4.740E-24
3.4796E-12	4.749E-24
3.5337E-12	4.758E-24
3.5887E-12	4.768E-24
3.6445E-12	4.777E-24
3.7013E-12	4.786E-24
3.7588E-12	4.795E-24
3.8173E-12	4.804E-24
3.8767E-12	4.814E-24
3.9371E-12	4.823E-24
3.9983E-12	4.832E-24
4.0605E-12	4.841E-24
4.1237E-12	4.850E-24
4.1879E-12	4.860E-24
4.2530E-12	4.869E-24
4.3192E-12	4.878E-24
4.3864E-12	4.887E-24
4.4547E-12	4.897E-24
4.5240E-12	4.906E-24
4.5944E-12	4.915E-24
4.6659E-12	4.924E-24
4.7385E-12	4.934E-24
4.8122E-12	4.943E-24
4.8871E-12	4.952E-24
4.9631E-12	4.962E-24
5.0404E-12	4.971E-24
5.1188E-12	4.980E-24
5.1984E-12	4.989E-24
5.2793E-12	4.999E-24
5.3615E-12	5.008E-24
5.4449E-12	5.017E-24
5.5296E-12	5.027E-24
5.6157E-12	5.036E-24
5.7031E-12	5.045E-24
5.7918E-12	5.055E-24
5.8819E-12	5.064E-24
5.9734E-12	5.073E-24
6.0664E-12	5.082E-24
6.1608E-12	5.092E-24
6.2566E-12	5.101E-24
6.3540E-12	5.110E-24
6.4529E-12	5.120E-24
6.5533E-12	5.129E-24
6.6553E-12	5.138E-24
6.7588E-12	5.148E-24
6.8640E-12	5.157E-24
6.9708E-12	5.166E-24
7.0792E-12	5.176E-24
7.1894E-12	5.185E-24
7.3013E-12	5.194E-24
7.4149E-12	5.204E-24
7.5303E-12	5.213E-24
7.6474E-12	5.222E-24
7.7664E-12	5.232E-24
7.8873E-12	5.241E-24
8.0100E-12	5.251E-24
#-------------------------------------
