# DOUBLE IONIZATION
# Energy (Joules) | Cross Section (m2)
#-------------------------------------
8.0100E-18	1.434E-22
8.2602E-18	2.850E-22
8.5181E-18	4.247E-22
8.7842E-18	5.617E-22
9.0585E-18	6.950E-22
9.3414E-18	8.237E-22
9.6331E-18	9.474E-22
9.9340E-18	1.065E-21
1.0244E-17	1.177E-21
1.0564E-17	1.283E-21
1.0894E-17	1.382E-21
1.1234E-17	1.474E-21
1.1585E-17	1.559E-21
1.1947E-17	1.637E-21
1.2320E-17	1.708E-21
1.2705E-17	1.772E-21
1.3102E-17	1.830E-21
1.3511E-17	1.880E-21
1.3933E-17	1.925E-21
1.4368E-17	1.963E-21
1.4817E-17	1.995E-21
1.5279E-17	2.022E-21
1.5756E-17	2.043E-21
1.6249E-17	2.059E-21
1.6756E-17	2.069E-21
1.7279E-17	2.076E-21
1.7819E-17	2.078E-21
1.8375E-17	2.075E-21
1.8949E-17	2.069E-21
1.9541E-17	2.060E-21
2.0151E-17	2.047E-21
2.0781E-17	2.032E-21
2.1430E-17	2.013E-21
2.2099E-17	1.993E-21
2.2789E-17	1.970E-21
2.3501E-17	1.945E-21
2.4235E-17	1.918E-21
2.4992E-17	1.890E-21
2.5772E-17	1.860E-21
2.6577E-17	1.829E-21
2.7407E-17	1.798E-21
2.8263E-17	1.765E-21
2.9146E-17	1.732E-21
3.0056E-17	1.698E-21
3.0995E-17	1.664E-21
3.1963E-17	1.629E-21
3.2961E-17	1.595E-21
3.3990E-17	1.560E-21
3.5052E-17	1.525E-21
3.6146E-17	1.491E-21
3.7275E-17	1.456E-21
3.8439E-17	1.422E-21
3.9640E-17	1.388E-21
4.0878E-17	1.355E-21
4.2154E-17	1.322E-21
4.3471E-17	1.289E-21
4.4829E-17	1.257E-21
4.6229E-17	1.225E-21
4.7672E-17	1.194E-21
4.9161E-17	1.164E-21
5.0696E-17	1.134E-21
5.2280E-17	1.104E-21
5.3912E-17	1.076E-21
5.5596E-17	1.048E-21
5.7332E-17	1.020E-21
5.9123E-17	9.934E-22
6.0969E-17	9.672E-22
6.2874E-17	9.417E-22
6.4837E-17	9.167E-22
6.6862E-17	8.925E-22
6.8950E-17	8.688E-22
7.1103E-17	8.457E-22
7.3324E-17	8.232E-22
7.5614E-17	8.013E-22
7.7975E-17	7.801E-22
8.0411E-17	7.593E-22
8.2922E-17	7.392E-22
8.5512E-17	7.195E-22
8.8182E-17	7.005E-22
9.0936E-17	6.819E-22
9.3776E-17	6.639E-22
9.6705E-17	6.463E-22
9.9725E-17	6.293E-22
1.0284E-16	6.127E-22
1.0605E-16	5.966E-22
1.0936E-16	5.809E-22
1.1278E-16	5.657E-22
1.1630E-16	5.509E-22
1.1993E-16	5.365E-22
1.2368E-16	5.225E-22
1.2754E-16	5.089E-22
1.3152E-16	4.957E-22
1.3563E-16	4.829E-22
1.3987E-16	4.704E-22
1.4424E-16	4.582E-22
1.4874E-16	4.464E-22
1.5339E-16	4.349E-22
1.5818E-16	4.238E-22
1.6312E-16	4.129E-22
1.6821E-16	4.024E-22
1.7622E-16	3.776E-22
1.9638E-16	3.485E-22
2.1885E-16	3.212E-22
2.4389E-16	2.958E-22
2.7179E-16	2.721E-22
3.0289E-16	2.501E-22
3.3755E-16	2.297E-22
3.7617E-16	2.109E-22
4.1920E-16	1.934E-22
4.6717E-16	1.773E-22
5.2062E-16	1.624E-22
5.8018E-16	1.487E-22
6.4656E-16	1.362E-22
7.2054E-16	1.246E-22
8.0298E-16	1.140E-22
8.9485E-16	1.042E-22
9.9723E-16	9.526E-23
1.1113E-15	8.707E-23
1.2385E-15	7.957E-23
1.3802E-15	7.271E-23
1.5381E-15	6.644E-23
1.7141E-15	6.070E-23
1.9102E-15	5.546E-23
2.1287E-15	5.068E-23
2.3723E-15	4.632E-23
2.6437E-15	4.234E-23
2.9462E-15	3.871E-23
3.2832E-15	3.540E-23
3.6589E-15	3.239E-23
4.0775E-15	2.964E-23
4.5440E-15	2.715E-23
5.0639E-15	2.488E-23
5.6433E-15	2.281E-23
6.2890E-15	2.094E-23
7.0085E-15	1.923E-23
7.8104E-15	1.768E-23
8.7040E-15	1.628E-23
9.6999E-15	1.500E-23
1.0810E-14	1.385E-23
1.2046E-14	1.280E-23
1.3425E-14	1.185E-23
1.4961E-14	1.100E-23
1.6672E-14	1.022E-23
1.8580E-14	9.522E-24
2.0706E-14	8.891E-24
2.3075E-14	8.323E-24
2.5715E-14	7.812E-24
2.8657E-14	7.353E-24
3.1936E-14	6.942E-24
3.5589E-14	6.575E-24
3.9661E-14	6.247E-24
4.4199E-14	5.956E-24
4.9256E-14	5.699E-24
5.4892E-14	5.472E-24
6.1172E-14	5.273E-24
6.8171E-14	5.099E-24
7.5970E-14	4.949E-24
8.4662E-14	4.821E-24
9.4349E-14	4.712E-24
1.0514E-13	4.622E-24
1.1717E-13	4.548E-24
1.3058E-13	4.489E-24
1.4552E-13	4.444E-24
1.6217E-13	4.411E-24
1.8072E-13	4.390E-24
2.0140E-13	4.379E-24
2.2444E-13	4.377E-24
2.5012E-13	4.384E-24
2.7874E-13	4.398E-24
3.1063E-13	4.419E-24
3.4617E-13	4.446E-24
3.8578E-13	4.479E-24
4.2992E-13	4.516E-24
4.7910E-13	4.558E-24
5.3392E-13	4.603E-24
5.9501E-13	4.652E-24
6.6308E-13	4.703E-24
7.3895E-13	4.757E-24
8.2350E-13	4.813E-24
9.1771E-13	4.871E-24
1.0227E-12	4.931E-24
1.1397E-12	4.992E-24
1.2701E-12	5.055E-24
1.4154E-12	5.118E-24
1.5774E-12	5.183E-24
1.7579E-12	5.248E-24
1.9590E-12	5.314E-24
2.1831E-12	5.381E-24
2.4329E-12	5.448E-24
2.7113E-12	5.516E-24
3.0215E-12	5.584E-24
3.3672E-12	5.652E-24
3.7524E-12	5.721E-24
4.1817E-12	5.790E-24
4.6602E-12	5.859E-24
5.1933E-12	5.928E-24
5.7875E-12	5.998E-24
6.4497E-12	6.067E-24
7.1876E-12	6.137E-24
8.0100E-12	6.207E-24
#-------------------------------------
