# ELASTIC
# Energy (Joules) | Cross Section (m2)
#-------------------------------------
2.2431E-22	5.974E-20
4.3259E-22	5.755E-20
6.5689E-22	5.515E-20
1.0895E-21	5.096E-20
1.5221E-21	4.783E-20
1.9547E-21	4.462E-20
2.4033E-21	4.189E-20
2.8359E-21	3.967E-20
3.2684E-21	3.764E-20
3.7010E-21	3.618E-20
4.3579E-21	3.352E-20
8.7159E-21	2.129E-20
1.3074E-20	1.435E-20
1.7432E-20	1.010E-20
2.1806E-20	7.334E-21
2.6164E-20	5.504E-21
3.0522E-20	4.296E-21
3.4879E-20	3.519E-21
3.9237E-20	3.057E-21
4.3595E-20	2.826E-21
4.7953E-20	2.770E-21
5.2311E-20	2.851E-21
5.6669E-20	3.038E-21
6.1043E-20	3.311E-21
6.5401E-20	3.651E-21
6.9759E-20	4.046E-21
7.4117E-20	4.487E-21
7.8475E-20	4.965E-21
8.2833E-20	5.475E-21
8.7191E-20	6.010E-21
9.8085E-20	7.438E-21
1.0900E-19	8.959E-21
1.1989E-19	1.054E-20
1.3079E-19	1.217E-20
1.4170E-19	1.383E-20
1.5259E-19	1.551E-20
1.6349E-19	1.721E-20
1.7438E-19	1.891E-20
1.8529E-19	2.062E-20
1.9619E-19	2.200E-20
2.1799E-19	2.493E-20
2.3978E-19	2.783E-20
2.6159E-19	3.070E-20
2.8338E-19	3.353E-20
3.0518E-19	3.634E-20
3.2699E-19	3.912E-20
3.4878E-19	4.186E-20
3.7058E-19	4.457E-20
3.9237E-19	4.726E-20
4.1418E-19	4.993E-20
4.3597E-19	5.257E-20
4.5777E-19	5.519E-20
4.7958E-19	5.780E-20
5.0137E-19	6.039E-20
5.2318E-19	6.295E-20
5.4497E-19	6.551E-20
5.6677E-19	6.805E-20
5.8856E-19	7.059E-20
6.1037E-19	7.312E-20
6.3217E-19	7.565E-20
6.5396E-19	7.817E-20
6.7577E-19	8.070E-20
6.9756E-19	8.323E-20
7.1936E-19	8.577E-20
7.4115E-19	8.832E-20
7.6296E-19	9.087E-20
7.8476E-19	9.344E-20
8.0655E-19	9.601E-20
8.2836E-19	9.861E-20
8.5015E-19	1.012E-19
8.7195E-19	1.038E-19
8.9374E-19	1.065E-19
9.1555E-19	1.091E-19
9.3736E-19	1.118E-19
9.5915E-19	1.145E-19
9.8095E-19	1.173E-19
1.0027E-18	1.200E-19
1.0245E-18	1.228E-19
1.0463E-18	1.256E-19
1.0681E-18	1.284E-19
1.0899E-18	1.312E-19
1.1117E-18	1.340E-19
1.1335E-18	1.369E-19
1.1553E-18	1.398E-19
1.1771E-18	1.427E-19
1.1989E-18	1.456E-19
1.2207E-18	1.485E-19
1.2425E-18	1.514E-19
1.2643E-18	1.543E-19
1.2861E-18	1.572E-19
1.3079E-18	1.602E-19
1.3297E-18	1.631E-19
1.3515E-18	1.660E-19
1.3733E-18	1.689E-19
1.3951E-18	1.717E-19
1.4169E-18	1.746E-19
1.4387E-18	1.774E-19
1.4605E-18	1.802E-19
1.4823E-18	1.829E-19
1.5041E-18	1.856E-19
1.5259E-18	1.883E-19
1.5477E-18	1.909E-19
1.5695E-18	1.935E-19
1.5913E-18	1.960E-19
1.6131E-18	1.985E-19
1.6349E-18	2.008E-19
1.6567E-18	2.032E-19
1.6785E-18	2.054E-19
1.7003E-18	2.075E-19
1.7221E-18	2.096E-19
1.7439E-18	2.116E-19
1.8442E-18	2.209E-19
1.8464E-18	2.209E-19
1.8485E-18	2.210E-19
1.8507E-18	2.211E-19
1.8529E-18	2.212E-19
1.8551E-18	2.213E-19
1.8573E-18	2.214E-19
1.8594E-18	2.215E-19
1.8616E-18	2.216E-19
1.8638E-18	2.217E-19
1.8660E-18	2.218E-19
1.8682E-18	2.220E-19
1.8703E-18	2.221E-19
1.8725E-18	2.222E-19
1.8747E-18	2.223E-19
1.8769E-18	2.225E-19
1.8791E-18	2.226E-19
1.8812E-18	2.227E-19
1.8834E-18	2.228E-19
1.8856E-18	2.230E-19
1.8878E-18	2.231E-19
1.8899E-18	2.232E-19
1.8921E-18	2.233E-19
1.8943E-18	2.234E-19
1.8965E-18	2.235E-19
1.8987E-18	2.236E-19
1.9009E-18	2.237E-19
1.9030E-18	2.237E-19
1.9052E-18	2.237E-19
1.9074E-18	2.226E-19
1.9096E-18	2.238E-19
1.9118E-18	2.238E-19
1.9139E-18	2.240E-19
1.9161E-18	2.241E-19
1.9183E-18	2.243E-19
1.9205E-18	2.246E-19
1.9226E-18	2.248E-19
1.9248E-18	2.251E-19
1.9270E-18	2.252E-19
1.9292E-18	2.253E-19
1.9314E-18	2.254E-19
1.9336E-18	2.255E-19
1.9357E-18	2.256E-19
1.9379E-18	2.258E-19
1.9401E-18	2.259E-19
1.9423E-18	2.260E-19
1.9445E-18	2.261E-19
1.9466E-18	2.262E-19
1.9488E-18	2.263E-19
1.9510E-18	2.264E-19
1.9532E-18	2.265E-19
1.9553E-18	2.266E-19
1.9575E-18	2.267E-19
1.9597E-18	2.268E-19
1.9619E-18	2.269E-19
1.9641E-18	2.270E-19
1.9662E-18	2.271E-19
1.9684E-18	2.272E-19
1.9706E-18	2.273E-19
1.9728E-18	2.274E-19
1.9750E-18	2.275E-19
1.9772E-18	2.276E-19
1.9793E-18	2.277E-19
1.9815E-18	2.278E-19
1.9837E-18	2.279E-19
1.9859E-18	2.280E-19
1.9880E-18	2.281E-19
1.9902E-18	2.281E-19
1.9924E-18	2.282E-19
1.9946E-18	2.283E-19
1.9968E-18	2.284E-19
1.9989E-18	2.285E-19
2.0011E-18	2.286E-19
2.0033E-18	2.287E-19
2.0055E-18	2.288E-19
2.0077E-18	2.289E-19
2.0099E-18	2.289E-19
2.0120E-18	2.290E-19
2.0142E-18	2.291E-19
2.0164E-18	2.292E-19
2.0186E-18	2.293E-19
2.0207E-18	2.294E-19
2.0229E-18	2.295E-19
2.0251E-18	2.295E-19
2.0273E-18	2.296E-19
2.0295E-18	2.297E-19
2.0316E-18	2.298E-19
2.0338E-18	2.299E-19
2.0360E-18	2.299E-19
2.0382E-18	2.300E-19
2.0404E-18	2.301E-19
2.0425E-18	2.302E-19
2.0447E-18	2.303E-19
2.0469E-18	2.303E-19
2.0491E-18	2.304E-19
2.0513E-18	2.305E-19
2.0535E-18	2.306E-19
2.0556E-18	2.306E-19
2.0578E-18	2.307E-19
2.0600E-18	2.308E-19
2.0622E-18	2.309E-19
2.0643E-18	2.309E-19
2.0665E-18	2.310E-19
2.0687E-18	2.311E-19
2.0709E-18	2.311E-19
2.0731E-18	2.312E-19
2.0752E-18	2.313E-19
2.0774E-18	2.313E-19
2.0796E-18	2.314E-19
2.0818E-18	2.315E-19
2.0840E-18	2.315E-19
2.0862E-18	2.315E-19
2.0883E-18	2.315E-19
2.0905E-18	2.315E-19
2.0927E-18	2.315E-19
2.0949E-18	2.314E-19
2.0970E-18	2.314E-19
2.0992E-18	2.312E-19
2.1014E-18	2.311E-19
2.1036E-18	2.311E-19
2.1058E-18	2.315E-19
2.1079E-18	2.321E-19
2.1101E-18	2.324E-19
2.1123E-18	2.325E-19
2.1145E-18	2.326E-19
2.1167E-18	2.326E-19
2.1188E-18	2.327E-19
2.1210E-18	2.327E-19
2.1232E-18	2.328E-19
2.1254E-18	2.329E-19
2.1276E-18	2.329E-19
2.1297E-18	2.329E-19
2.1319E-18	2.330E-19
2.1341E-18	2.329E-19
2.1363E-18	2.328E-19
2.1385E-18	2.328E-19
2.1406E-18	2.329E-19
2.1428E-18	2.329E-19
2.1450E-18	2.329E-19
2.1472E-18	2.329E-19
2.1494E-18	2.327E-19
2.1515E-18	2.328E-19
2.1537E-18	2.330E-19
2.1559E-18	2.330E-19
2.1581E-18	2.330E-19
2.1603E-18	2.330E-19
2.1624E-18	2.330E-19
2.1646E-18	2.331E-19
2.1668E-18	2.331E-19
2.1690E-18	2.331E-19
2.1712E-18	2.331E-19
2.1733E-18	2.332E-19
2.1755E-18	2.332E-19
2.1777E-18	2.332E-19
2.1799E-18	2.332E-19
2.1821E-18	2.332E-19
2.1842E-18	2.333E-19
2.1864E-18	2.333E-19
2.1886E-18	2.333E-19
2.1908E-18	2.333E-19
2.1930E-18	2.333E-19
2.1951E-18	2.334E-19
2.1973E-18	2.334E-19
2.1995E-18	2.334E-19
2.2017E-18	2.334E-19
2.2039E-18	2.334E-19
2.2060E-18	2.335E-19
2.2082E-18	2.335E-19
2.2104E-18	2.335E-19
2.2126E-18	2.335E-19
2.2148E-18	2.335E-19
2.2169E-18	2.335E-19
2.2191E-18	2.335E-19
2.2213E-18	2.336E-19
2.2235E-18	2.336E-19
2.2257E-18	2.336E-19
2.2278E-18	2.336E-19
2.2300E-18	2.335E-19
2.2322E-18	2.335E-19
2.2344E-18	2.336E-19
2.2365E-18	2.336E-19
2.2387E-18	2.336E-19
2.2409E-18	2.336E-19
2.2431E-18	2.337E-19
2.2453E-18	2.337E-19
2.2475E-18	2.336E-19
2.2496E-18	2.336E-19
2.2518E-18	2.336E-19
2.2540E-18	2.336E-19
2.2562E-18	2.335E-19
2.2584E-18	2.334E-19
2.2605E-18	2.335E-19
2.2627E-18	2.335E-19
2.2649E-18	2.336E-19
2.2671E-18	2.336E-19
2.2692E-18	2.335E-19
2.2714E-18	2.335E-19
2.2736E-18	2.335E-19
2.2758E-18	2.334E-19
2.2780E-18	2.334E-19
2.2802E-18	2.334E-19
2.2823E-18	2.334E-19
2.2845E-18	2.334E-19
2.2867E-18	2.336E-19
2.2889E-18	2.334E-19
2.2911E-18	2.334E-19
2.2932E-18	2.333E-19
2.2954E-18	2.333E-19
2.2976E-18	2.333E-19
2.2998E-18	2.333E-19
2.3019E-18	2.332E-19
2.3041E-18	2.332E-19
2.3063E-18	2.332E-19
2.3085E-18	2.331E-19
2.3107E-18	2.331E-19
2.3128E-18	2.331E-19
2.3150E-18	2.331E-19
2.3172E-18	2.331E-19
2.3194E-18	2.331E-19
2.3216E-18	2.330E-19
2.3238E-18	2.330E-19
2.3259E-18	2.329E-19
2.3281E-18	2.330E-19
2.3303E-18	2.329E-19
2.3325E-18	2.329E-19
2.3346E-18	2.329E-19
2.3368E-18	2.329E-19
2.3390E-18	2.329E-19
2.3412E-18	2.328E-19
2.3434E-18	2.328E-19
2.3455E-18	2.328E-19
2.3477E-18	2.327E-19
2.3499E-18	2.327E-19
2.3521E-18	2.326E-19
2.3543E-18	2.326E-19
2.3565E-18	2.325E-19
2.3586E-18	2.325E-19
2.3608E-18	2.325E-19
2.3630E-18	2.324E-19
2.3652E-18	2.323E-19
2.3673E-18	2.323E-19
2.3695E-18	2.323E-19
2.3717E-18	2.322E-19
2.3739E-18	2.322E-19
2.3761E-18	2.322E-19
2.3782E-18	2.321E-19
2.3804E-18	2.321E-19
2.3826E-18	2.321E-19
2.3848E-18	2.320E-19
2.3870E-18	2.319E-19
2.3891E-18	2.318E-19
2.3913E-18	2.317E-19
2.3935E-18	2.318E-19
2.3957E-18	2.317E-19
2.3979E-18	2.318E-19
2.4000E-18	2.316E-19
2.4022E-18	2.316E-19
2.4044E-18	2.315E-19
2.4066E-18	2.314E-19
2.4088E-18	2.314E-19
2.4109E-18	2.313E-19
2.4131E-18	2.313E-19
2.4153E-18	2.312E-19
2.4175E-18	2.312E-19
2.4197E-18	2.311E-19
2.4218E-18	2.310E-19
2.4240E-18	2.310E-19
2.4262E-18	2.309E-19
2.4284E-18	2.308E-19
2.4306E-18	2.307E-19
2.4328E-18	2.307E-19
2.4349E-18	2.306E-19
2.4371E-18	2.306E-19
2.4393E-18	2.305E-19
2.4415E-18	2.304E-19
2.4436E-18	2.304E-19
2.4458E-18	2.303E-19
2.4480E-18	2.303E-19
2.4502E-18	2.302E-19
2.4524E-18	2.301E-19
2.4545E-18	2.301E-19
2.4567E-18	2.300E-19
2.4589E-18	2.300E-19
2.4611E-18	2.299E-19
2.4633E-18	2.298E-19
2.4654E-18	2.298E-19
2.4676E-18	2.298E-19
2.4698E-18	2.297E-19
2.4720E-18	2.297E-19
2.4742E-18	2.296E-19
2.4763E-18	2.296E-19
2.4785E-18	2.295E-19
2.4807E-18	2.294E-19
2.4829E-18	2.293E-19
2.4872E-18	2.292E-19
2.4894E-18	2.291E-19
2.4916E-18	2.290E-19
2.4938E-18	2.288E-19
2.4960E-18	2.287E-19
2.4981E-18	2.286E-19
2.5003E-18	2.286E-19
2.5025E-18	2.285E-19
2.5047E-18	2.284E-19
2.5069E-18	2.283E-19
2.5090E-18	2.283E-19
2.5112E-18	2.282E-19
2.5134E-18	2.281E-19
2.5156E-18	2.280E-19
2.5178E-18	2.279E-19
2.5199E-18	2.278E-19
2.5221E-18	2.278E-19
2.5243E-18	2.277E-19
2.5265E-18	2.275E-19
2.5287E-18	2.275E-19
2.5308E-18	2.273E-19
2.5330E-18	2.272E-19
2.5352E-18	2.272E-19
2.5374E-18	2.271E-19
2.5396E-18	2.270E-19
2.5635E-18	2.265E-19
2.7237E-18	2.185E-19
2.8839E-18	2.094E-19
3.0441E-18	2.002E-19
3.2044E-18	1.906E-19
3.3646E-18	1.814E-19
3.5248E-18	1.738E-19
3.6850E-18	1.659E-19
3.8452E-18	1.590E-19
4.0055E-18	1.524E-19
4.8065E-18	1.282E-19
6.4087E-18	9.854E-20
8.0109E-18	8.144E-20
9.6131E-18	7.022E-20
1.1215E-17	6.247E-20
1.2817E-17	5.685E-20
1.4420E-17	5.241E-20
1.6020E-17	5.125E-20
1.7112E-17	4.923E-20
1.8278E-17	4.723E-20
1.9524E-17	4.528E-20
2.0855E-17	4.336E-20
2.2277E-17	4.148E-20
2.3795E-17	3.964E-20
2.5417E-17	3.785E-20
2.7150E-17	3.611E-20
2.9000E-17	3.442E-20
3.0977E-17	3.279E-20
3.3089E-17	3.120E-20
3.5344E-17	2.967E-20
3.7753E-17	2.819E-20
4.0327E-17	2.676E-20
4.3076E-17	2.539E-20
4.6012E-17	2.407E-20
4.9148E-17	2.281E-20
5.2499E-17	2.160E-20
5.6077E-17	2.044E-20
5.9900E-17	1.933E-20
6.3983E-17	1.827E-20
6.8344E-17	1.726E-20
7.3002E-17	1.630E-20
7.7979E-17	1.539E-20
8.3294E-17	1.452E-20
8.8972E-17	1.369E-20
9.5036E-17	1.290E-20
1.0151E-16	1.216E-20
1.0843E-16	1.145E-20
1.1583E-16	1.078E-20
1.2372E-16	1.015E-20
1.3215E-16	9.553E-21
1.4116E-16	8.987E-21
1.5078E-16	8.452E-21
1.6106E-16	7.947E-21
1.7204E-16	7.471E-21
1.8377E-16	7.021E-21
1.9629E-16	6.598E-21
2.0967E-16	6.198E-21
2.2397E-16	5.822E-21
2.3923E-16	5.468E-21
2.5554E-16	5.134E-21
2.7296E-16	4.820E-21
2.9157E-16	4.525E-21
3.1144E-16	4.247E-21
3.3267E-16	3.986E-21
3.5535E-16	3.740E-21
3.7957E-16	3.510E-21
4.0544E-16	3.293E-21
4.3308E-16	3.089E-21
4.6260E-16	2.898E-21
4.9413E-16	2.719E-21
5.2781E-16	2.550E-21
5.6379E-16	2.392E-21
6.0222E-16	2.243E-21
6.4327E-16	2.104E-21
6.8712E-16	1.973E-21
7.3395E-16	1.851E-21
7.8398E-16	1.736E-21
8.3742E-16	1.628E-21
8.9451E-16	1.527E-21
9.5548E-16	1.432E-21
1.0206E-15	1.343E-21
1.0902E-15	1.260E-21
1.1645E-15	1.182E-21
1.2439E-15	1.109E-21
1.3287E-15	1.040E-21
1.4192E-15	9.757E-22
1.5160E-15	9.155E-22
1.6193E-15	8.590E-22
1.7297E-15	8.061E-22
1.8476E-15	7.566E-22
1.9735E-15	7.101E-22
2.1080E-15	6.666E-22
2.2517E-15	6.259E-22
2.4052E-15	5.877E-22
2.5692E-15	5.520E-22
2.7443E-15	5.185E-22
2.9314E-15	4.871E-22
3.1312E-15	4.577E-22
3.3446E-15	4.302E-22
3.5726E-15	4.045E-22
3.8161E-15	3.803E-22
4.0762E-15	3.577E-22
4.3541E-15	3.366E-22
4.6509E-15	3.168E-22
4.9679E-15	2.982E-22
5.3065E-15	2.808E-22
5.6682E-15	2.646E-22
6.0546E-15	2.493E-22
6.4673E-15	2.351E-22
6.9082E-15	2.217E-22
7.3790E-15	2.092E-22
7.8820E-15	1.975E-22
8.4193E-15	1.866E-22
8.9932E-15	1.763E-22
9.6062E-15	1.667E-22
1.0261E-14	1.577E-22
1.0960E-14	1.493E-22
1.1708E-14	1.415E-22
1.2506E-14	1.341E-22
1.3358E-14	1.272E-22
1.4269E-14	1.208E-22
1.5241E-14	1.147E-22
1.6280E-14	1.091E-22
1.7390E-14	1.038E-22
1.8575E-14	9.889E-23
1.9841E-14	9.428E-23
2.1194E-14	8.997E-23
2.2638E-14	8.594E-23
2.4182E-14	8.217E-23
2.5830E-14	7.865E-23
2.7591E-14	7.536E-23
2.9471E-14	7.228E-23
3.1480E-14	6.942E-23
3.3626E-14	6.674E-23
3.5918E-14	6.424E-23
3.8366E-14	6.191E-23
4.0982E-14	5.973E-23
4.3775E-14	5.771E-23
4.6759E-14	5.582E-23
4.9946E-14	5.406E-23
5.3351E-14	5.243E-23
5.6987E-14	5.090E-23
6.0872E-14	4.949E-23
6.5021E-14	4.817E-23
6.9453E-14	4.695E-23
7.4188E-14	4.582E-23
7.9245E-14	4.477E-23
8.4646E-14	4.380E-23
9.0416E-14	4.290E-23
9.6579E-14	4.206E-23
1.0316E-13	4.130E-23
1.1019E-13	4.059E-23
1.1771E-13	3.993E-23
1.2573E-13	3.933E-23
1.3430E-13	3.877E-23
1.4345E-13	3.826E-23
1.5323E-13	3.780E-23
1.6368E-13	3.737E-23
1.7483E-13	3.697E-23
1.8675E-13	3.661E-23
1.9948E-13	3.629E-23
2.1308E-13	3.599E-23
2.2760E-13	3.571E-23
2.4312E-13	3.546E-23
2.5969E-13	3.524E-23
2.7739E-13	3.503E-23
2.9630E-13	3.485E-23
3.1650E-13	3.468E-23
3.3807E-13	3.453E-23
3.6111E-13	3.439E-23
3.8573E-13	3.426E-23
4.1202E-13	3.415E-23
4.4011E-13	3.405E-23
4.7011E-13	3.396E-23
5.0215E-13	3.388E-23
5.3638E-13	3.381E-23
5.7294E-13	3.374E-23
6.1200E-13	3.368E-23
6.5371E-13	3.363E-23
6.9827E-13	3.358E-23
7.4587E-13	3.354E-23
7.9671E-13	3.350E-23
8.5102E-13	3.347E-23
9.0903E-13	3.344E-23
9.7099E-13	3.342E-23
1.0372E-12	3.339E-23
1.1079E-12	3.337E-23
1.1834E-12	3.335E-23
1.2641E-12	3.334E-23
1.3502E-12	3.332E-23
1.4423E-12	3.331E-23
1.5406E-12	3.330E-23
1.6456E-12	3.329E-23
1.7578E-12	3.328E-23
1.8776E-12	3.327E-23
2.0056E-12	3.327E-23
2.1423E-12	3.326E-23
2.2883E-12	3.325E-23
2.4443E-12	3.325E-23
2.6109E-12	3.324E-23
2.7888E-12	3.324E-23
2.9789E-12	3.324E-23
3.1820E-12	3.323E-23
3.3989E-12	3.323E-23
3.6306E-12	3.323E-23
3.8781E-12	3.323E-23
4.1424E-12	3.323E-23
4.4248E-12	3.322E-23
4.7264E-12	3.322E-23
5.0485E-12	3.322E-23
5.3927E-12	3.322E-23
5.7603E-12	3.322E-23
6.1529E-12	3.322E-23
6.5723E-12	3.322E-23
7.0203E-12	3.322E-23
7.4988E-12	3.322E-23
8.0100E-12	3.322E-23
#-------------------------------------
