# SINGLE IONIZATION
# Energy (Joules) | Cross Section (m2)
#-------------------------------------
0.0000E+00	0.000E+00
2.5250E-18	0.000E+00
2.5635E-18	2.020E-22
2.7237E-18	1.340E-21
2.8839E-18	2.940E-21
3.0441E-18	4.600E-21
3.2044E-18	6.270E-21
3.3646E-18	7.870E-21
3.5248E-18	9.330E-21
3.6850E-18	1.060E-20
3.8452E-18	1.180E-20
4.0055E-18	1.300E-20
4.1657E-18	1.410E-20
4.4861E-18	1.600E-20
4.8065E-18	1.800E-20
5.1270E-18	1.960E-20
5.4474E-18	2.110E-20
5.7678E-18	2.240E-20
6.0883E-18	2.330E-20
6.4087E-18	2.390E-20
6.8093E-18	2.450E-20
7.2098E-18	2.490E-20
8.0109E-18	2.530E-20
8.8120E-18	2.600E-20
9.6131E-18	2.660E-20
1.0414E-17	2.730E-20
1.1215E-17	2.770E-20
1.2016E-17	2.820E-20
1.2817E-17	2.840E-20
1.3619E-17	2.850E-20
1.4420E-17	2.860E-20
1.6022E-17	2.850E-20
1.9226E-17	2.810E-20
2.0828E-17	2.760E-20
2.4033E-17	2.680E-20
2.5635E-17	2.620E-20
2.8839E-17	2.520E-20
3.2044E-17	2.390E-20
4.0055E-17	2.170E-20
4.8065E-17	1.980E-20
5.6076E-17	1.810E-20
6.4087E-17	1.680E-20
8.0109E-17	1.460E-20
9.6131E-17	1.300E-20
1.1215E-16	1.160E-20
1.2297E-16	1.089E-20
1.3288E-16	1.029E-20
1.4359E-16	9.713E-21
1.5516E-16	9.166E-21
1.6767E-16	8.645E-21
1.8118E-16	8.150E-21
1.9578E-16	7.678E-21
2.1156E-16	7.231E-21
2.2862E-16	6.806E-21
2.4704E-16	6.404E-21
2.6695E-16	6.023E-21
2.8847E-16	5.662E-21
3.1172E-16	5.321E-21
3.3684E-16	4.999E-21
3.6399E-16	4.695E-21
3.9332E-16	4.408E-21
4.2502E-16	4.138E-21
4.5928E-16	3.883E-21
4.9629E-16	3.643E-21
5.3629E-16	3.417E-21
5.7951E-16	3.205E-21
6.2622E-16	3.005E-21
6.7669E-16	2.817E-21
7.3123E-16	2.640E-21
7.9016E-16	2.474E-21
8.5384E-16	2.319E-21
9.2266E-16	2.173E-21
9.9702E-16	2.035E-21
1.0774E-15	1.907E-21
1.1642E-15	1.786E-21
1.2580E-15	1.673E-21
1.3594E-15	1.567E-21
1.4690E-15	1.468E-21
1.5874E-15	1.375E-21
1.7153E-15	1.288E-21
1.8536E-15	1.206E-21
2.0030E-15	1.130E-21
2.1644E-15	1.058E-21
2.3388E-15	9.916E-22
2.5273E-15	9.291E-22
2.7310E-15	8.707E-22
2.9511E-15	8.160E-22
3.1890E-15	7.650E-22
3.4460E-15	7.172E-22
3.7237E-15	6.726E-22
4.0239E-15	6.309E-22
4.3482E-15	5.920E-22
4.6986E-15	5.556E-22
5.0773E-15	5.217E-22
5.4865E-15	4.900E-22
5.9287E-15	4.604E-22
6.4065E-15	4.328E-22
6.9228E-15	4.071E-22
7.4808E-15	3.831E-22
8.0837E-15	3.607E-22
8.7352E-15	3.398E-22
9.4392E-15	3.203E-22
1.0200E-14	3.022E-22
1.1022E-14	2.853E-22
1.1910E-14	2.696E-22
1.2870E-14	2.549E-22
1.3908E-14	2.413E-22
1.5029E-14	2.287E-22
1.6240E-14	2.169E-22
1.7549E-14	2.059E-22
1.8963E-14	1.958E-22
2.0491E-14	1.863E-22
2.2143E-14	1.776E-22
2.3927E-14	1.695E-22
2.5856E-14	1.619E-22
2.7940E-14	1.550E-22
3.0191E-14	1.486E-22
3.2625E-14	1.426E-22
3.5254E-14	1.371E-22
3.8096E-14	1.321E-22
4.1166E-14	1.274E-22
4.4484E-14	1.232E-22
4.8069E-14	1.193E-22
5.1943E-14	1.157E-22
5.6129E-14	1.124E-22
6.0653E-14	1.095E-22
6.5541E-14	1.068E-22
7.0824E-14	1.043E-22
7.6532E-14	1.021E-22
8.2700E-14	1.002E-22
8.9365E-14	9.843E-23
9.6568E-14	9.688E-23
1.0435E-13	9.552E-23
1.1276E-13	9.433E-23
1.2185E-13	9.331E-23
1.3167E-13	9.245E-23
1.4228E-13	9.172E-23
1.5375E-13	9.114E-23
1.6614E-13	9.068E-23
1.7953E-13	9.034E-23
1.9400E-13	9.010E-23
2.0963E-13	8.997E-23
2.2653E-13	8.993E-23
2.4479E-13	8.998E-23
2.6452E-13	9.012E-23
2.8584E-13	9.032E-23
3.0887E-13	9.060E-23
3.3377E-13	9.094E-23
3.6067E-13	9.134E-23
3.8973E-13	9.179E-23
4.2115E-13	9.229E-23
4.5509E-13	9.283E-23
4.9177E-13	9.342E-23
5.3140E-13	9.405E-23
5.7423E-13	9.471E-23
6.2051E-13	9.540E-23
6.7052E-13	9.612E-23
7.2456E-13	9.686E-23
7.8296E-13	9.763E-23
8.4606E-13	9.842E-23
9.1425E-13	9.923E-23
9.8793E-13	1.001E-22
1.0676E-12	1.009E-22
1.1536E-12	1.018E-22
1.2466E-12	1.026E-22
1.3470E-12	1.035E-22
1.4556E-12	1.044E-22
1.5729E-12	1.053E-22
1.6997E-12	1.062E-22
1.8367E-12	1.071E-22
1.9847E-12	1.080E-22
2.1447E-12	1.090E-22
2.3175E-12	1.099E-22
2.5043E-12	1.108E-22
2.7061E-12	1.118E-22
2.9242E-12	1.127E-22
3.1599E-12	1.137E-22
3.4146E-12	1.146E-22
3.6898E-12	1.156E-22
3.9872E-12	1.166E-22
4.3085E-12	1.175E-22
4.6558E-12	1.185E-22
5.0310E-12	1.195E-22
5.4365E-12	1.204E-22
5.8746E-12	1.214E-22
6.3481E-12	1.224E-22
6.8597E-12	1.233E-22
7.4126E-12	1.243E-22
8.0100E-12	1.253E-22
#-------------------------------------
