# ELASTIC
# Energy (Joules) | Cross Section (m2)
#-------------------------------------
0.0000E+00	1.147E-20
1.6022E-20	1.147E-20
1.9483E-20	8.801E-21
2.3693E-20	6.542E-21
2.8810E-20	4.770E-21
3.5035E-20	3.502E-21
4.2604E-20	2.879E-21
5.1808E-20	2.842E-21
6.3001E-20	3.464E-21
7.6613E-20	4.761E-21
9.3164E-20	6.793E-21
1.1329E-19	9.583E-21
1.3777E-19	1.323E-20
1.6752E-19	1.784E-20
2.0372E-19	2.301E-20
2.4773E-19	2.887E-20
3.0126E-19	3.584E-20
3.6634E-19	4.405E-20
4.4549E-19	5.371E-20
5.4173E-19	6.513E-20
6.5877E-19	7.873E-20
8.0109E-19	9.537E-20
8.4906E-19	1.011E-19
8.9990E-19	1.072E-19
9.5379E-19	1.139E-19
1.0109E-18	1.210E-19
1.0714E-18	1.288E-19
1.1356E-18	1.372E-19
1.2036E-18	1.462E-19
1.2757E-18	1.558E-19
1.3521E-18	1.660E-19
1.4330E-18	1.767E-19
1.5189E-18	1.874E-19
1.6099E-18	1.981E-19
1.7062E-18	2.081E-19
1.8084E-18	2.176E-19
1.9167E-18	2.242E-19
2.0314E-18	2.298E-19
2.1530E-18	2.329E-19
2.2820E-18	2.334E-19
2.4187E-18	2.311E-19
2.5635E-18	2.264E-19
2.7237E-18	2.185E-19
2.8839E-18	2.094E-19
3.0441E-18	2.002E-19
3.2044E-18	1.906E-19
3.3646E-18	1.814E-19
3.5248E-18	1.738E-19
3.6850E-18	1.659E-19
3.8452E-18	1.590E-19
4.0055E-18	1.524E-19
4.8065E-18	1.282E-19
6.4087E-18	9.854E-20
8.0109E-18	8.144E-20
9.6131E-18	7.022E-20
1.1215E-17	6.247E-20
1.2817E-17	5.685E-20
1.4420E-17	5.241E-20
1.6022E-17	4.931E-20
2.0171E-17	4.260E-20
2.5395E-17	3.730E-20
3.1963E-17	3.294E-20
4.0247E-17	2.923E-20
5.0661E-17	2.599E-20
6.3783E-17	2.308E-20
8.0301E-17	2.044E-20
1.0110E-16	1.802E-20
1.2726E-16	1.580E-20
1.6022E-16	1.378E-20
2.0171E-16	1.196E-20
2.5395E-16	1.032E-20
3.1963E-16	8.854E-21
4.0247E-16	7.556E-21
5.0661E-16	6.413E-21
6.3783E-16	5.412E-21
8.0301E-16	4.541E-21
1.0110E-15	3.789E-21
1.2726E-15	3.146E-21
1.6022E-15	2.600E-21
2.0171E-15	2.141E-21
2.5395E-15	1.758E-21
3.1963E-15	1.441E-21
4.0247E-15	1.180E-21
5.0661E-15	9.671E-22
6.3783E-15	7.939E-22
6.4673E-15	7.965E-22
6.9082E-15	7.512E-22
7.3790E-15	7.088E-22
7.8820E-15	6.691E-22
8.4193E-15	6.320E-22
8.9932E-15	5.972E-22
9.6062E-15	5.647E-22
1.0261E-14	5.342E-22
1.0960E-14	5.058E-22
1.1708E-14	4.791E-22
1.2506E-14	4.541E-22
1.3358E-14	4.308E-22
1.4269E-14	4.090E-22
1.5241E-14	3.885E-22
1.6280E-14	3.694E-22
1.7390E-14	3.516E-22
1.8575E-14	3.348E-22
1.9841E-14	3.192E-22
2.1194E-14	3.046E-22
2.2638E-14	2.909E-22
2.4182E-14	2.782E-22
2.5830E-14	2.663E-22
2.7591E-14	2.551E-22
2.9471E-14	2.447E-22
3.1480E-14	2.350E-22
3.3626E-14	2.259E-22
3.5918E-14	2.175E-22
3.8366E-14	2.096E-22
4.0982E-14	2.022E-22
4.3775E-14	1.953E-22
4.6759E-14	1.890E-22
4.9946E-14	1.830E-22
5.3351E-14	1.775E-22
5.6987E-14	1.723E-22
6.0872E-14	1.675E-22
6.5021E-14	1.631E-22
6.9453E-14	1.589E-22
7.4188E-14	1.551E-22
7.9245E-14	1.515E-22
8.4646E-14	1.482E-22
9.0416E-14	1.452E-22
9.6579E-14	1.424E-22
1.0316E-13	1.398E-22
1.1019E-13	1.374E-22
1.1771E-13	1.352E-22
1.2573E-13	1.331E-22
1.3430E-13	1.312E-22
1.4345E-13	1.295E-22
1.5323E-13	1.279E-22
1.6368E-13	1.265E-22
1.7483E-13	1.251E-22
1.8675E-13	1.239E-22
1.9948E-13	1.228E-22
2.1308E-13	1.218E-22
2.2760E-13	1.209E-22
2.4312E-13	1.200E-22
2.5969E-13	1.193E-22
2.7739E-13	1.186E-22
2.9630E-13	1.179E-22
3.1650E-13	1.174E-22
3.3807E-13	1.169E-22
3.6111E-13	1.164E-22
3.8573E-13	1.160E-22
4.1202E-13	1.156E-22
4.4011E-13	1.153E-22
4.7011E-13	1.149E-22
5.0215E-13	1.147E-22
5.3638E-13	1.144E-22
5.7294E-13	1.142E-22
6.1200E-13	1.140E-22
6.5371E-13	1.138E-22
6.9827E-13	1.137E-22
7.4587E-13	1.135E-22
7.9671E-13	1.134E-22
8.5102E-13	1.133E-22
9.0903E-13	1.132E-22
9.7099E-13	1.131E-22
1.0372E-12	1.130E-22
1.1079E-12	1.130E-22
1.1834E-12	1.129E-22
1.2641E-12	1.128E-22
1.3502E-12	1.128E-22
1.4423E-12	1.127E-22
1.5406E-12	1.127E-22
1.6456E-12	1.127E-22
1.7578E-12	1.126E-22
1.8776E-12	1.126E-22
2.0056E-12	1.126E-22
2.1423E-12	1.126E-22
2.2883E-12	1.126E-22
2.4443E-12	1.125E-22
2.6109E-12	1.125E-22
2.7888E-12	1.125E-22
2.9789E-12	1.125E-22
3.1820E-12	1.125E-22
3.3989E-12	1.125E-22
3.6306E-12	1.125E-22
3.8781E-12	1.125E-22
4.1424E-12	1.125E-22
4.4248E-12	1.125E-22
4.7264E-12	1.124E-22
5.0485E-12	1.124E-22
5.3927E-12	1.124E-22
5.7603E-12	1.124E-22
6.1529E-12	1.124E-22
6.5723E-12	1.124E-22
7.0203E-12	1.124E-22
7.4988E-12	1.124E-22
8.0100E-12	1.124E-22
#-------------------------------------
